-1.312007000459043671e-01 -3.354540389064024353e-02 -1.809302818955577097e-01 -2.030089517212417816e-01 1.075093249817335450e-02 2.338441864031125597e-02 -2.679067318402386655e-01 6.167953286148512154e-02 2.509736895397755019e-01 1.133168829312194981e-01 -2.030378339774145946e-01 1.005806267215324408e-02 9.213471598870565105e-02
3.642153554821792756e-07 2.202811082266946650e-26 -1.036981739744132335e-05 1.071064195440684511e-11 6.112217318806039534e-16 -6.800944690066297680e-04 1.590730150447269223e-33 -2.009940119000612906e-22 5.989444100817123160e-18 -1.788406766467245535e-07 4.872982245531142675e-33 1.343469443682520866e-04 5.347213117994930683e-07
1.724605223344335037e-04 7.245734513173635299e-04 -9.079809882228147408e-04 -1.516972456379895871e-27 1.509383813583628570e-33 1.854476869031047105e-05 -4.736687653513922988e-09 7.645765937360868725e-04 -2.619053736973166347e-29 3.883122758748705874e-07 -1.394020754302263329e-04 -1.901457079868028750e-06 1.554684757409104016e-08
-3.176977099489086687e-01 3.690058660184474260e-01 -1.791454556510217455e-01 1.234627162225987729e-01 -2.159333222923557477e-02 1.396101733729580019e-01 -1.505996197818867677e-01 -3.792976860982547604e-01 -3.437554196336133350e-01 -2.432824333497283498e-01 7.606524394689846702e-02 6.301668560707412992e-02 1.883973772063025631e-01
-5.010141121154112337e-02 -4.153379013353519777e-02 -2.690857050178634413e-01 -2.586097202013300511e-01 -2.207596613898301155e-02 4.038617497796347933e-01 2.722126806382380582e-01 -2.346644507350233722e-01 1.560702498322747989e-01 2.611699401388921649e-01 5.150741799689172173e-02 -3.164887261477551950e-01 -6.101479312248015985e-01
-3.948930932938113370e-02 1.658104312800912361e-01 4.148214877606820061e-01 -5.839838144945203036e-01 -6.363014311808767864e-01 4.250527764046730939e-01 2.641427418748914513e-01 1.345700292799145992e-01 -5.062655413008101957e-02 -6.189626385329624059e-01 -1.673287688440417698e-01 3.282400634429297193e-01 -2.028556653255894349e-01
9.982887098845233398e-03 -2.887938486969974378e-02 -1.597055887210316327e-01 -8.393664341914013061e-02 -6.099824099819703416e-02 -3.049831759575718018e-02 -2.702805134513615315e-02 -1.127139680187573675e-03 -2.445188536442008485e-03 -9.812150986263694363e-03 -3.063656828255097511e-02 5.658785460420013257e-03 -4.054998943445972670e-02
-8.490757133996162942e-02 3.042480741681078404e-01 2.130455474879620337e-01 2.480755951803294557e-01 -7.629040784030298450e-02 -2.245986083712424586e-01 2.835885808252896351e-02 -2.606084195715395180e-01 -1.078967646993037183e-01 -3.383094600871944246e-01 2.047025026389149294e-01 -2.218566194774162226e-01 2.726551959543130343e-01
2.662279218850051588e-01 3.399179888914828640e-02 2.137994390907145548e-01 9.978859719572767684e-02 1.374861876654472070e-01 -1.174295105577038423e-01 -1.709339564636767200e-02 -1.238184079353178008e-01 2.835933430301729730e-01 8.419714114821900269e-03 -1.756130048617830439e-02 1.831034167337096674e-01 2.126591771103837347e-01
2.522965463025214622e-37 -2.380187442876746935e-06 2.243006524046699700e-38 5.757573992425002625e-04 8.425641140669905024e-09 1.349293974779267238e-06 -5.641373634880161988e-04 2.191103914942584389e-38 -9.480726091091121311e-23 4.210315935496224983e-06 -3.813480251024548864e-04 1.322660804680503990e-05 -1.103985594350687568e-37
-1.741467826317306400e-01 3.411070593940069423e-02 -6.400452998593222920e-02 1.217256418168316118e-01 -3.302009047052636981e-01 -1.753238878324419048e-01 2.573736954761493556e-02 -5.404161087433209110e-01 -2.406037584365220694e-01 2.328288998068312951e-02 7.156527177810426132e-02 1.133631030044501969e-01 1.240929601137003013e-02
5.216607775806183511e-01 -8.555143801195225217e-02 -7.643967918147224205e-01 -1.454013025185080799e-01 -1.037380928958531595e-01 -2.005452768990223789e-01 2.280783005508756900e-01 2.289910554362975248e-01 -1.031925654537613479e-01 -1.437601289932381454e-01 -4.482060051555289415e-01 1.230180045490886394e-02 -4.591596266128152859e-01
4.882038238636280947e-01 -4.968680694171131451e-01 4.226056271594313268e-02 -7.189066295931200584e-03 -4.192822703670165407e-01 -4.781476935946711859e-01 -7.760773478430706140e-02 3.345492921684147802e-01 -1.347338843515618126e-02 -1.151667269064654331e+00 -7.988254721043681617e-01 1.280719485053068707e-01 1.348807339281871687e-01
3.213826634358390981e-11 2.545998115371560742e-07 2.812354548083261798e-12 2.834259925070352911e-33 -1.595323791020721994e-37 1.735967051139289651e-05 4.428781940774832618e-04 1.480612861004419755e-40 2.301641524277661969e-04 -1.862566993222526166e-35 4.207525283570752797e-38 1.038660611246421761e-37 -3.119171303943414510e-07
-2.812152729180834587e-01 -1.531512182104341757e-01 5.754513550330086352e-02 -1.116238933175621312e-01 -8.026698700854155433e-02 2.926147220471599919e-01 -8.475505222516582782e-02 2.631304152398642252e-02 -2.840593598742058856e-01 -4.329907946898929882e-01 2.165955630084140937e-01 9.066073147262500298e-02 2.263160778291714581e-01
-9.422074168293961272e-01 3.271254781601931061e-01 2.550708366699769650e-02 -1.168371084782701130e-01 -2.876852918435165440e-01 -2.079894717833469589e-02 -2.941556247433732008e-01 -7.716286385918917912e-01 2.846514974745922300e-01 -2.251762100136636968e-01 -1.094617287204881217e-01 -1.435952988273829778e-01 2.992565367759486561e-01
-6.044966121070515230e-01 2.809441224739124832e-01 3.397007144852414173e-01 -9.011956796607674403e-02 1.515897273445412745e-02 -2.517675715080379129e-01 -2.427633022734586657e-02 -1.360557674586087007e-01 -1.818151816131153287e-01 -1.461065425216371283e-01 1.741053254890551349e-01 -3.167999137759257289e-02 -9.777949622513117112e-02
1.330913854672058638e-01 1.644042227060332761e-02 2.636079878020318734e-01 -3.192112276840504137e-01 3.582999494892374348e-01 7.245950907565096299e-02 -3.960461355091918767e-01 2.093198745122102356e-01 1.998483994426635268e-01 5.440274993801993419e-01 -5.747651501981294597e-01 -1.885950207390396927e-01 2.582285200021450927e-02
4.426543789709497896e-04 -9.915005872398654931e-18 5.028158373913258665e-04 9.211460151644438037e-05 -3.593576423666585173e-10 8.067165719826831717e-07 1.029085769548625890e-03 -4.263627468206482376e-09 2.447345293650338967e-36 -5.145404237610700517e-39 -3.511533229021388557e-12 -8.263125335886067294e-04 -1.270423581678322285e-07
-5.047767024248556241e-11 2.568834002212293746e-37 -3.951110144588474142e-06 3.268158348298992550e-05 3.387194487044506205e-12 -1.411245001172874939e-04 3.177501977242573808e-22 3.396391125148750494e-21 4.363640685800977757e-04 -1.057156944103053832e-03 -7.565284231569083228e-09 2.071796593368713040e-04 2.340205038341726103e-04
7.973683997485051591e-11 3.374172009981885780e-08 -1.159037750946815577e-04 8.182934107443049086e-40 -4.396002663305660205e-08 -2.183361587766462985e-06 1.275442582384416785e-06 -2.316300021218841603e-05 -1.397601517884611669e-38 2.788256779548400140e-04 -1.637513574738874779e-06 7.166458894480785781e-04 1.002737033466106912e-03
-5.594727656959051650e-37 -4.169334144924253788e-06 -8.496621772142201564e-15 -1.263370115459199513e-35 -8.006542543554028206e-14 -6.403778300155136341e-11 6.319504518967568232e-04 -1.001835546805189804e-05 6.329349646236174108e-10 -1.112017958449589526e-03 3.296917130910106329e-32 1.461542777833032603e-04 -1.581698318829490011e-11
-1.669653367142582760e-06 1.274925849613883368e-21 1.762340470833169967e-11 3.491640555858703152e-14 -2.513942558450970949e-15 -4.514899441027559924e-09 4.331859454720137707e-04 1.820394216434846363e-04 7.467734525234195120e-38 9.804015241366721413e-06 -9.847966484418563687e-38 -6.001900011425583672e-36 -8.465450791722841395e-06
1.936714473490807886e-01 -5.059330700118329638e-01 -8.005583825810794751e-01 -6.397484178070841909e-02 1.079576737257869762e-01 -8.201251805459114363e-02 4.867443918272875564e-02 4.715592835969418251e-01 -3.196484222499655359e-01 7.583542525768358078e-02 1.844366927374405940e-01 6.857690476548013170e-02 -4.753977773478046953e-01
4.770871189349230879e-02 -1.659788282376670199e-01 -8.126553597659490480e-01 2.995891172965034488e-01 6.063860446998369652e-02 -1.121718237349203940e-03 1.490505578795319475e-01 2.943985405938145394e-01 -2.205853907126124891e-01 9.784424071224397113e-02 2.373184072706744085e-01 -1.305575094485398324e-01 -5.107554877059127252e-01
-2.224566948250047693e-01 2.096252083004213895e-01 -2.221158258857319490e-01 5.908219421809055016e-02 -5.834256398920072834e-02 -6.132159239249635602e-02 8.609547513975940314e-02 -2.283117812558027593e-01 3.647313847482616667e-02 1.168997178686624200e-01 1.622943018836973117e-01 -1.865615905310164246e-01 1.968360739046132180e-01
3.118779241155704947e-21 4.576342436029631489e-05 2.362628604497298710e-39 -9.239678688353303246e-39 1.604912100530385942e-04 8.736621865958225182e-05 2.366091471223287839e-37 -1.879707566951442806e-10 1.968669879423786832e-30 -3.917411102516340888e-30 -1.960315315319767177e-11 -4.748290223414272451e-10 1.956112872826281889e-05
-2.874523741245262332e-01 -1.615692429347191927e-01 -4.644809358691280865e-01 -1.971154398230368365e-01 -3.184833061912161201e-01 -2.346514452756700564e-01 1.511414835823116087e-01 4.720776329477071043e-01 -7.937694243567129659e-02 2.730564785803715061e-03 1.336311442827772811e-01 3.161698028375087288e-01 9.131741441282380245e-02
-4.643823884255112583e-02 1.887471736346876816e-01 3.532516119932783694e-01 -4.050943847536370712e-01 1.513209115018532107e-02 2.418309244627990795e-01 2.140182500355582995e-01 -6.413388605891420791e-02 -4.301602853304307972e-02 -2.871301777800615573e-01 3.357604850978158223e-02 2.371205336130888519e-01 -6.598457290920584084e-02
-6.898284688331729475e-02 3.143498780739987231e-01 -2.883972229605268889e-01 2.573776009239350238e-01 -1.350265832092906737e-01 2.587619264298378075e-01 -2.661769737305894057e-01 -1.828446713510874511e-01 2.798114614784559251e-01 -1.390701372225242594e-01 4.000851830958296329e-01 2.310830919314418586e-01 -1.673553008570661804e-01
-2.198681666008780178e-01 4.080758179277281239e-01 2.968301800503019283e-01 -1.365541692219425507e-01 -3.814674405939063595e-01 -1.827974950544539526e-02 3.313490106992052486e-01 -4.780363820372503514e-01 7.868251560384592613e-02 1.371218671439736192e-01 -2.851438207194877950e-01 -8.954782611476676257e-03 -1.858848066889993156e-01
2.094483401588829175e-01 -8.126712408492431372e-02 1.880452439458500935e-01 1.803314774099814555e-01 -2.440282047440427704e-01 -3.196925695179030358e-01 -1.946699913836260620e-01 -1.329008423119205085e-01 2.730533768595387878e-01 2.793212324883567743e-01 -5.776520317137020383e-02 -5.499603626997057876e-02 7.843961292124282392e-02
2.977031641912859516e-01 1.818527502168727494e-01 -4.912307983368897069e-01 -9.903018549884370358e-01 9.150061697886542611e-02 2.682576340469101095e-01 1.834811135760976708e-01 -7.169646074752068499e-01 2.876840014232399656e-01 -1.679504539554844966e-01 -1.332540415207626727e-01 -7.869770268529117929e-02 -8.356264901019683222e-01
1.182491917490938596e-05 -9.526759472368031504e-04 -3.484408590383874139e-06 2.221303641059019575e-14 -2.830231382323988767e-03 -2.665266289660144731e-03 1.666906892262792067e-02 -1.980201184382669732e-02 -3.485157001249794656e-08 -7.850553361590037341e-04 -2.369144455937800565e-05 7.119358400093419442e-05 3.354763336697828553e-05
2.020795875896525262e-01 -3.908208164207538360e-01 -5.142995984795570852e-01 -3.559001178462804504e-01 5.817571267583825367e-01 -1.102563276260559721e-01 5.979778265143742555e-02 -6.081309980591576014e-01 -3.183851896284928262e-01 5.080437106345168929e-02 -9.115858724638926935e-02 4.048150876752840133e-02 -3.856588585748433329e-01
-2.449417288394045433e-01 -6.531058812126466773e-01 2.467059043373473204e-01 -1.100847728890182453e-01 2.118769167968965472e-01 -1.760880823868648526e-01 -8.808939662194101294e-02 4.928963322085687382e-02 -1.459233024060123118e-01 -2.102914227399668712e-01 -3.257518010803058806e-01 3.387605811077942786e-02 -2.905395682197172216e-02
-2.261428696109469005e-01 -5.195406885338390568e-01 -2.671875965602581449e-01 -3.080649247904910376e-02 3.149806138391654797e-01 4.259636693204172514e-02 -4.026141560283191118e-02 1.074334963866741821e-01 3.570903561404134563e-01 2.343256999370297855e-01 4.424215075490375154e-02 -1.307938972817641876e-01 -3.605314197144152688e-01
-1.218356957702744076e-01 1.227005703135304049e-01 -1.387344434423041784e-01 -1.638817817865410309e-01 1.248742725758834327e-01 2.011697925939984477e-01 -2.424556003683377703e-01 4.120701180246632428e-02 -2.291611606398870175e-03 3.484187489763513890e-01 2.425513161826073349e-01 -1.882665032315981868e-02 6.761670135992915720e-02
3.487408669870655231e-01 2.325586738326354194e-02 -1.609563686704948149e-01 1.615777054476962848e-01 -3.029865806587110355e-01 -3.352143665696283303e-02 3.090152985522769402e-01 3.305578480519135165e-01 -7.945496040575990293e-02 -3.192267364367847859e-01 -9.195582863878482005e-02 -2.254920050267120446e-01 -2.757671523166775884e-01
2.556483483701126220e-09 -4.589627900636175255e-09 1.100364246268578412e-37 3.728568199937232785e-29 7.816689077989995033e-04 -9.408046603662405179e-31 -1.652531326359847402e-04 -1.221735175612605022e-04 4.962720288792664126e-33 -1.023311859905754891e-31 1.530636146696898274e-34 5.957523262582321042e-36 -3.390563091946399038e-04
2.079131502983240856e-02 1.893498976953579271e-01 -1.145119473393711174e-01 -2.487463785385037041e-01 -1.634435185230208032e-01 -3.047614915782296818e-01 -2.082887227366154448e-01 -4.876206471213649363e-01 -3.340205577707435203e-01 -1.254233070577734366e-01 2.690138892150494843e-01 2.638711376715087709e-01 -7.514101042597422231e-02
-2.555532328626297089e-01 -4.869318191153955422e-02 4.120766235181430592e-02 -5.295026741199790887e-01 2.465062693047075926e-01 2.022867794831456345e-01 2.907716309146622935e-01 -6.811085051869670837e-01 1.359307783151555427e-01 1.328828843911061264e-01 -1.058995433555189186e-01 -1.223567863754439385e-02 -2.277565914935338331e-01
-2.832120965036669102e-01 -9.211127532014790065e-02 2.599946225364434260e-02 9.814624960673619392e-02 3.057743135701455617e-01 -9.463384569899851995e-02 2.783010093399822527e-01 -5.101712494722873137e-01 2.018798479654261568e-01 -1.352196469730261585e-01 -8.860871696766718653e-02 1.567941244198314266e-01 -8.964764793308908908e-02
1.638056242532682505e-01 -2.132156900139050015e-01 -8.980142601927273982e-02 -2.128436683737882640e-01 1.331773347605749447e-01 -5.125245670836002798e-01 1.256548695446073338e-01 5.007919964949261171e-01 -2.873143713696216239e-01 -1.749741588893294064e-01 3.408715257826800370e-03 4.182606151980136633e-02 -5.617937610737658988e-02
-1.381872244152896889e-01 -2.491575803330648431e-01 -6.742565963955192698e-01 1.065738145344404496e-02 1.258424733418903596e-01 -2.323587437218701257e-01 -2.904183496250082978e-03 4.017805343710537103e-01 2.156840138619293690e-01 2.735788234678610542e-01 3.064467554168750357e-03 1.280266923663406775e-01 -6.705927170462125941e-01
-2.899532218771252445e-01 -1.431171220860916748e-01 9.056744478894551698e-02 2.149572549407458566e-01 -2.126458407819193097e-01 -6.849189062771374355e-03 -2.316270854676508433e-03 1.810082097264990031e-01 -2.917545826802026565e-01 2.141264805462924081e-01 -9.404871535934791749e-02 -2.418023872582825973e-01 3.379964431490112275e-01
-3.211019754534954714e-05 -2.063575683129574340e-04 4.027413824316953731e-05 -6.549153597015480728e-13 4.013676558859328012e-22 -2.001174720297599377e-17 3.619959535353667555e-31 -1.222586187480735624e-09 8.268331300687380775e-22 -1.231632383568626650e-33 7.735496794185652637e-11 1.545909405152411909e-39 3.179035507840849754e-04
-4.567309633957519267e-04 -4.633183801501363761e-40 5.425868039623614313e-34 1.661379430416679340e-04 -3.824425620003549806e-04 7.581101758265852544e-36 1.398191902463125500e-05 -1.499110736596971303e-08 3.689279245689821657e-05 -7.633981223454750983e-04 5.554042322806366129e-10 2.404362429799358812e-04 -2.772212936476972909e-21
-7.770878400320141433e-02 -1.834075810855103905e-01 3.621049262496525700e-01 -1.490378931326594436e-01 -3.048398816260460831e-01 2.336353810484066151e-01 4.246643355036082423e-02 -3.765577470234187651e-01 -2.888058230452700270e-01 -4.789768336916430669e-01 5.602034503508165203e-02 1.418369698290445902e-01 6.976183599514393374e-02
1.855358440483097782e-01 2.073260605456094530e-01 7.034362584906478366e-02 -2.572355135515682067e-01 9.409652701440976430e-02 -5.733611604242254411e-02 2.376847158536805199e-02 6.868517426784816193e-02 -9.381900424164905938e-02 2.154144460283154427e-01 -1.904693107369228311e-01 9.056568431844826128e-02 -2.619471020614891343e-01
-3.375478488556919454e-01 -4.885071888730044276e-02 -3.558112766720699649e-01 1.744365715574983378e-01 -1.272182403574074749e-01 -7.032763710623866904e-02 5.933738285079386693e-02 -7.193053636120917693e-02 3.087038351371449926e-02 2.052280529120383834e-01 1.675980405329902390e-01 -2.889725058697879545e-01 9.098334660906734483e-02
2.095089369761587994e-01 -4.389904648251755082e-02 -1.636697844115906075e-01 -1.466172888493229576e-01 2.265400956248575515e-01 2.003086046324648040e-01 -7.182662739398142093e-02 -3.288699894887953112e-01 -4.376050499428630336e-01 -1.126127797743528558e-01 1.429468100140522972e-03 -2.497409740616739204e-01 3.355378128799985094e-01
2.404081702738638066e-25 1.317744241110227249e-04 1.344512836432558634e-07 1.116886673379310849e-08 -1.880696392021437439e-30 6.889170834493738272e-27 1.574546108163218929e-24 2.143588369229531717e-26 3.803036106095033652e-37 8.554847044421137964e-04 5.418433185187669181e-10 9.803236880630476969e-08 3.165228531691913308e-05
-2.286967215890346461e-01 -2.462961100718430718e-01 1.914246703572828334e-01 -3.131676131841931027e-02 2.989195042223096732e-01 -2.564277252550776764e-01 4.683372334098651057e-02 -1.315751191742082771e-01 -3.798206354369245141e-01 3.966648409522380292e-02 2.944702641354283168e-01 -1.506188715650183252e-01 9.494985338818441589e-02
7.721895040807436050e-02 -1.283626839693651489e-01 -9.842633657069679853e-02 4.074074691311955765e-01 -2.101394480104476215e-01 -2.746390833834546075e-01 -4.001970016842092415e-01 -7.984969672100055912e-03 1.995723903673017052e-01 2.861665715057975512e-01 -3.270196224798350149e-01 1.332996722501698372e-01 -6.333590305894730432e-02
-9.070176453293957164e-02 -1.178332759933531371e-02 -5.299893396355175729e-02 2.088596865989182094e-01 2.219897832990910536e-01 -1.151577443653726829e-01 1.886347771526321881e-01 1.404595721011155929e-01 2.200841451107172220e-01 -1.444817620143226400e-01 4.723089423144709309e-02 -1.226625769131046290e-01 1.853006418263716815e-01
-6.808080259334793327e-01 2.625073386240906470e-01 5.120773782367041282e-02 4.737933232536747363e-01 -8.053072476216655007e-02 1.594473480334335502e-01 -1.483393984081826378e-01 -5.645335496543528730e-01 -1.207115589400330619e-01 1.343931557728724746e-01 1.583063872639285108e-01 -1.466815838009583595e-01 1.158998784068164534e-01
-1.917347522480330288e-19 -1.711242252163426722e-34 9.736916588543504333e-10 -7.903488042243327765e-36 -2.413415485541542545e-04 -4.879928526757138353e-05 3.896236091447833601e-32 -1.710920200811218129e-10 -1.669194568238936466e-04 -1.004984779233000753e-35 3.437444855487817941e-37 -2.381714043612821478e-17 7.759845547760236507e-11
7.976875433882933686e-02 -1.801489702152768158e-01 1.204414384527968396e-01 1.035571373072402129e-01 3.047252888805115217e-02 -1.942991391680560787e-01 -4.842391651024281485e-01 3.114941025427346855e-01 -1.705490128517431758e-01 3.489058782389728997e-01 2.067595070414570135e-01 2.885310363839732259e-02 -1.468672015769116879e-01
-4.170917153507629482e-01 -1.804231606994220055e-02 -2.662918238079267086e-01 -3.555997854088657761e-02 7.333793685037094667e-02 -4.447388357429920419e-02 2.989406388690259431e-01 -6.341744458776991111e-01 3.795918868394773105e-01 3.300329182710697307e-01 2.488813155951617451e-01 1.362572920697481538e-01 -2.056815848572935979e-01
1.666797625466055754e-01 -3.471124476595222746e-02 -7.342261663178871467e-02 6.581518080998054188e-02 -2.394228499088823722e-02 -7.414120559160602107e-03 -1.108232037636789902e-01 -1.011092466615537595e-02 -3.866742373228392871e-01 -3.280635753414462563e-01 -1.560695541990922419e-01 -2.876460871790300633e-01 -2.041352625426241241e-01
3.998802746893153626e-01 -7.480182856211405884e-01 -1.548728042153053319e-01 -3.772625752707078894e-01 2.419788016902975070e-01 -1.133424948875997318e-01 -3.204564655990060212e-02 9.760657388537520573e-02 -1.210452088181335761e-01 9.005999350737552145e-02 -4.212298078753013431e-01 2.577153120819377086e-01 -1.485165444281659197e-01
-9.643085868794924742e-02 -1.476442851042813753e-01 -2.185468152506513662e-01 2.035891427896902306e-01 -4.690551438384403526e-02 -1.672791589253129442e-03 -2.632103446011878622e-01 4.018669371762134124e-01 2.216841001902680186e-01 -1.174670342600352968e-01 -2.906090666403674527e-01 -7.410135939096186564e-02 2.245847298055449193e-01
4.114613991051712105e-01 -3.319370059558467423e-01 -4.849618665759554137e-01 -1.170493735029776605e+00 -9.928154662433552602e-02 8.000297617328719357e-02 2.096461696482772308e-01 3.855669610922995982e-01 6.394366909883957006e-02 -4.331241735785305025e-01 -1.645442753783735723e-01 8.347911611412792143e-02 -9.094306002251386634e-01
