4.648741393661086352e-02 5.752595667384803040e-27 2.664118103329406634e-39 6.049438590558088580e-02 2.996230989358109661e-03 3.545900047220612028e-01 -1.551288739732379907e-01 -6.370180897656203822e-02 3.420891086477947374e-01 7.923791914809113953e-09 7.641863236853628331e-03 9.324454976873826351e-02 5.328571638135620736e-02 -1.610520321195061547e-12 -1.093650978069552696e-03 1.436520030280705185e-01 2.867464291752116479e-01 -7.091739999504935443e-02 1.015288395259678261e-06 1.675507175600420756e-06 1.844560599288966660e-26 -5.604089465873919849e-39 1.975651618039147533e-27 3.271494992003002311e-01 2.501092216036223670e-01 -1.353372667906450055e-01 3.396429504143134308e-08 2.654601439754575298e-01 8.665983108471729535e-02 -1.435837049980765237e-02 -1.373006397618373176e-01 7.190192063403005873e-02 1.914699179719903388e-01 4.111231124098094214e-02 -6.327397407061507995e-01 -1.923247651731131991e-01 -3.804800794799100272e-01 1.520532917636371328e-01 1.048683399974559977e-01 -2.060558008704829127e-10 1.331931468186772771e-01 -3.032805739144626700e-01 9.243360524081624396e-02 2.916315668497992952e-01 8.627381458880063747e-02 9.603001464332130976e-02 2.485161953724954653e-37 9.411469933768943349e-23 -2.919474499022944314e-01 1.160853763804940847e-01 5.932330444596713369e-06 4.078793987613345551e-01 2.538647993913312491e-06 1.547131298047559056e-01 1.779381554529431142e-01 1.434809747339355623e-01 -1.011265058244578963e-01 4.260894194867593135e-19 1.461413636215790623e-01 -4.318503735052437453e-01 2.444635369236387856e-01 1.900025477359148507e-01 -7.574712934717581919e-03 3.942830630721753105e-01
1.886715762441098510e-01 -1.084510879796451904e-33 -5.903666666233719696e-09 1.848567948858626242e-01 1.616318292914217802e-01 2.299076996666384598e-01 -7.231202115685195740e-03 1.853514692006002496e-01 1.244443456783329710e-01 -2.631471471297236775e-38 1.277132052882151425e-01 6.348736939492630182e-02 -4.397950879754640718e-01 -8.821648679485272200e-07 -1.245191320001330787e-01 2.373971822161645984e-01 -3.697502681164039490e-02 -2.149929421705538135e-01 -8.370985397423123985e-10 -1.624295096588161525e-06 -4.141891750906941429e-32 4.922215431697713560e-37 -1.124374452131760891e-35 6.511399905503084153e-03 1.648429260694293519e-01 -7.062999406660612489e-02 -1.445435601498514584e-39 4.400514707679511334e-02 -5.195354417352300580e-02 5.553690099107266159e-02 2.673795873680955282e-01 3.238622540104922343e-01 6.641121629556735739e-02 1.269690771866761603e-01 5.448321033783797701e-02 4.146691217597932820e-03 2.121279785824596031e-01 2.509856981766329098e-01 4.754465263950019213e-03 -9.534875603428149984e-30 1.451436874964021906e-01 -1.013681662097460218e-01 -1.599522097742001048e-01 -1.926558471364522018e-01 -5.811136185822936284e-02 -1.097233887991957563e-01 -6.631788646146018590e-10 4.339570320298180766e-33 -3.191729830519096645e-01 -6.837543152642967803e-02 -2.740400836509314098e-01 2.209799184600619304e-02 -8.049788532833158889e-31 -1.987632016235488241e-01 6.529023234918882035e-02 -1.701471447376819712e-01 4.209671255934932521e-02 1.205045262529028958e-23 -4.970177947847791156e-02 1.756006761155715426e-02 -8.973501690640517392e-02 1.204815185530816318e-01 -3.138701660666895488e-02 4.546692531313586277e-02
5.072281281752828719e-02 -1.930943644892198307e-27 -5.432797013394511062e-07 2.263440313083483479e-01 4.620415066874503551e-04 -1.755556502049455958e-01 1.101481584587284679e-01 2.523754712553125668e-01 -8.370782545783085615e-02 3.364678904523072993e-23 1.581808840873243638e-01 6.021330222491331347e-02 -1.756046732465731534e-10 -3.481591575450630354e-14 5.850551862792939366e-03 -4.570023219000068360e-01 -4.306735395831592927e-01 -1.527261345444028973e-01 -3.311788260699600760e-39 -8.296592931254906136e-20 -6.149115877258165286e-07 8.631217085744006999e-20 1.589483815640112665e-24 1.073125050505987360e-01 -3.681838554854515583e-02 -3.450246913002908648e-03 -9.608491199373836009e-09 -2.383836720900665562e-01 3.770146069586593346e-02 -6.823296436316629576e-02 -4.760233765940332512e-02 1.862245543845672882e-02 -9.029770844209093761e-02 -9.110511280929500105e-03 -2.670739569629138055e-01 -7.255854654146930149e-02 -2.304420399860691582e-01 1.949448789820574512e-01 -5.578900946551004769e-02 -4.257346550088228509e-29 1.867852256971095359e-01 -4.092137636532495321e-02 -1.834531880381747027e-01 -6.688873336932912861e-02 -1.362475468953626076e-02 8.581922771774823377e-02 -9.142874201333847337e-38 -1.854722591493793619e-09 2.134306673412915759e-02 -6.197097383308378116e-02 1.323058607455837504e-12 9.511499263882534916e-02 1.119257961538755002e-32 2.426189770252068778e-01 8.244857232940178138e-02 -1.019709400781569492e-01 7.913628616337492483e-02 -1.585337049403632575e-10 1.683164436373036851e-02 -2.754658357280637127e-01 -8.153580837612943444e-02 -4.551576376645640604e-02 -1.424015303852431413e-01 -4.052390177710964853e-02
-2.231777507495649182e-01 4.839538642518396112e-39 -6.942601300730111049e-37 1.798102755686622756e-01 -2.850082682009015822e-01 -2.944850077888303552e-01 4.411715860259293048e-02 1.944220032281087918e-01 1.340869232311809323e-01 -1.274376479324059770e-21 -3.275249905417442625e-02 -1.274083475285619771e-01 -4.339035403453091466e-01 -1.627801422849720322e-38 1.025880069829823993e-01 4.666773165671986301e-02 1.573259842114543561e-01 -3.294891311191638916e-02 3.532348154327979055e-29 6.238001919614239425e-38 1.267495340210907339e-39 2.801998628152346431e-19 -5.339470989191948387e-09 -1.493996616267798394e-01 -1.974911586154247112e-01 -2.587303246818053790e-37 -1.345044075322652806e-10 -2.370021696995732591e-02 5.392768113987598394e-02 -1.957806633412431940e-01 3.279619338928186495e-02 -2.021721586260623593e-01 -4.606330037534048238e-01 1.950892936541201991e-06 -2.231669092381173003e-01 6.368003217864968979e-02 -2.413894142993290859e-01 3.286661736522090982e-02 2.251171676039348257e-01 1.479205836719814586e-36 8.924149750350964666e-03 2.600710034311431301e-02 -8.211179957927035311e-02 1.613341768496291684e-01 -5.364479662130183790e-02 1.663667567047215634e-01 -2.460710241649118253e-09 9.330345041180959622e-23 3.146981273376521782e-01 -1.090607206163515946e-01 -1.280470026888806123e-01 1.387526805171224731e-01 -4.417010994441222708e-38 1.282110879739040699e-01 -1.470426647052502644e-01 8.507163500523812205e-02 9.891293064192809709e-03 -4.615984325292985797e-11 -1.806570494335489052e-01 5.580338691627719644e-02 2.001911655386166000e-01 -2.525911297233489616e-01 -5.646254333991788249e-02 -2.618303936058575809e-01
-4.686022194598860047e-02 3.307989986887322422e-12 2.150546405615939233e-38 -2.445353698518499541e-01 -3.113281346508401173e-02 -2.447576318204870149e-01 -8.802989187780591438e-20 2.227710888920238219e-02 -1.408238228814806259e-01 1.568494883079396027e-08 -3.715848855806033746e-02 -5.506910199053487859e-02 1.519108499402971879e-01 8.392521851529474435e-35 -4.838100736417289688e-02 2.654671182335588964e-01 1.214684688410149899e-01 4.425380014757544778e-02 -6.354451832431792918e-10 6.932384807878084043e-14 -5.427877161146410536e-35 -8.050926877505389750e-39 1.039792148953809555e-08 1.341481343501317869e-01 -7.200674490756675539e-02 -3.020819719435396304e-10 3.268767969491972290e-19 1.288957352029516945e-01 -1.966400623273114601e-01 3.209062644747216059e-02 6.812232934880974033e-02 5.620531826647497120e-02 -7.422686847165882451e-02 6.484227309997286894e-12 -1.345379268920100790e-01 1.760454872702318374e-01 -1.033244659676916949e-01 -2.078497832532458928e-02 1.842209574554712903e-01 -2.172499674959302294e-10 -2.979909674271617459e-01 1.027058950986808328e-01 8.896147877043630858e-02 9.315079654510631524e-02 8.593787602701702388e-02 -7.156564470613047471e-03 1.120998433855277669e-19 1.327612926514345196e-31 -3.816358423676253359e-02 1.339022471708120887e-01 5.399016514933254601e-02 -2.114000514856933730e-02 -1.095749107770783239e-38 2.151119605244180277e-01 -2.293291375919657427e-01 1.813921919080311793e-02 2.312611253519309545e-02 -2.093046069820023293e-35 -1.783077891016081606e-01 1.695199130128555720e-01 2.177304744833606087e-01 9.167578009037322118e-03 1.453841806916977564e-01 9.431868147397354241e-02
1.092132228646950504e-01 -1.641311525128551582e-10 -1.093723588640125720e-37 1.364955875133895269e-01 -6.661069715918031819e-02 1.415440630138232493e-02 1.322214348019808416e-01 1.940044994715265647e-01 6.043970028346516005e-02 -6.052743897291626140e-09 1.831339671451524820e-01 8.773210719866361695e-02 -2.385353862416664479e-09 6.354577929323015155e-08 1.352174608319840488e-01 -4.335080699782841163e-01 -4.855881876080296866e-01 -1.597155041131770314e-01 -2.518339902373710511e-07 1.781770814067023405e-30 3.604805077266842878e-13 -2.416492900743747172e-06 1.999021010393854864e-30 -8.114914124305649956e-02 -1.065482048035469934e-02 5.981895146796488034e-08 1.051516963631047789e-31 -2.064325994211101134e-01 1.016501522921817724e-01 -3.743303342072733936e-02 -9.380022655287943711e-02 8.771751131473916330e-02 -1.615012328097253647e-01 -8.995786892299291617e-12 2.426844502996449102e-40 -3.907392273814425665e-01 2.794194940898813706e-01 -7.846612786490897787e-03 -5.063993229666401488e-03 5.638133411519203246e-34 -1.079993949129317010e-01 4.353441054075082167e-02 -1.703820114094204419e-01 2.199518264003132717e-01 -1.317309392587998340e-01 -1.524141498028553504e-02 -4.318781748157697622e-08 2.562084778671054703e-06 5.707291927019866179e-02 2.087011004374884557e-02 -1.291327053256590592e-07 1.037050635361886214e-01 -3.096934896540302511e-14 2.159215681982709634e-01 -2.427310756189475852e-02 -1.196653041422013342e-01 -2.377287042508567996e-02 5.436102037876383518e-39 1.468484131481689881e-01 -4.305148716629296768e-01 1.132204026138468184e-01 -2.795864760906864328e-03 2.320413716897289091e-02 -1.582109222171143859e-01
1.099430053011866797e-03 4.397256204840941230e-38 -1.220704495179520319e-10 -1.156524293233567452e-01 1.368821057671694985e-01 1.448899987310578175e-01 -3.971553601511324666e-02 -1.133317175140532568e-01 2.575030091280658059e-02 8.364235182503929680e-37 -2.011405346316642584e-01 5.466030593618166622e-02 2.180816271279601426e-01 3.819540648597727799e-31 -1.444812685752442649e-01 -1.388128561865837884e-01 -8.194847818807021733e-02 1.376572972688871188e-01 -1.308981688171305367e-06 -1.203938331311389402e-08 2.130036321599684996e-13 -6.667333433464676516e-12 -5.350475396030825847e-32 3.070784439299056173e-02 -1.018189826772314815e-01 -9.698066847965858273e-02 -2.152401131303079071e-23 2.751296221182574775e-01 9.475608059376397496e-02 3.155793664594142012e-02 1.897768887645349609e-02 -1.123498648176633613e-01 -1.073377348960373040e-01 1.243455272566627111e-08 -2.105389473839839876e-01 -9.200829624431269838e-02 -6.091150098204899110e-03 -1.508307879527556183e-01 -2.948420653432334837e-02 3.774984947457864102e-37 -4.708017862310744095e-02 9.993047186628938039e-02 6.832639883605430564e-02 9.746019555562256131e-02 7.213925954278546659e-02 -7.181224916239126177e-02 1.538548590912571528e-37 -2.977298565772555706e-22 4.065793426681314771e-02 -4.373361654607440391e-02 1.218823124397445425e-02 -8.126181648212958686e-02 1.649036389012903375e-25 1.406315663737233435e-01 1.311004226307551090e-01 -1.408303257758025118e-01 -6.353990130069835096e-02 1.443131608089647308e-39 1.808192385116211831e-01 9.922475934435924516e-02 -2.093281909219190523e-02 -8.662188218867983291e-02 5.089985197170545511e-02 2.631626556304008657e-01
8.365068706166092771e-02 -1.224083473263170478e-21 -6.303289185789365683e-10 2.292909310843015136e-01 3.077047711305251898e-01 1.219103458701614739e-01 -1.181490709177365761e-01 -8.687571474011510433e-03 -1.361003548365134486e-01 4.223031149574535350e-08 -3.057042407167221559e-02 2.805090549938157873e-01 3.591527306177962064e-02 -1.484151777873170653e-38 -3.214625320566353445e-02 7.163525526360993434e-02 -3.650713394195625322e-02 -4.426546217305851738e-01 -7.975793185972648638e-10 1.618551753918060105e-08 2.107029398226190717e-09 -1.971331942554205747e-36 2.855282186064609462e-36 1.987496304496829125e-01 -9.545389195879555588e-02 1.326275134373423037e-01 2.605859248915712466e-37 5.417287177163568335e-02 -4.557377538715771254e-02 -1.350822002926029171e-02 -4.773347102191644736e-02 2.443250927204050071e-01 2.868570729145899362e-02 2.811374506396249057e-02 -4.080444956382192102e-03 -3.178590653579973363e-02 3.581469512142718831e-02 -4.507702225015335941e-03 1.149722906775924036e-01 2.925510249787508709e-26 5.017947363636780095e-02 -5.449266361006417647e-02 4.524707706682618708e-02 1.988044951922926795e-01 1.982734265227011072e-01 -5.363596240732340648e-02 -7.919336628959870253e-07 -3.549186852507645164e-21 -6.596016253293195131e-02 -1.734043600212989422e-01 -5.381430036179225829e-02 -2.487087141907614110e-02 2.154818313134112407e-30 3.884490315477491518e-02 2.974500296680487876e-02 -1.606658358117045438e-01 1.314127181546731193e-01 -1.613114918458401078e-40 1.496105685171245370e-01 9.116521957392106912e-02 -1.300173200731788714e-01 2.905143766909449310e-01 1.522951431305640813e-01 3.155071873198392329e-01
-4.647040521354031672e-02 2.171906078509561891e-37 -3.551317136513704634e-33 -1.847447068663555722e-02 9.319659777608468865e-02 -1.737112628464418107e-01 1.365822048593090532e-01 9.448615474273076853e-02 -3.985244250675171879e-02 3.482480192747148355e-39 2.014598859854362933e-01 3.678133215753746910e-02 6.806501910770525303e-13 3.557218737358771839e-31 1.416754342001109723e-01 -3.921066617990213166e-01 -6.166209062932855867e-01 -1.411787687003214775e-01 -2.199119380219689716e-15 1.778255730308420484e-06 2.367598310213381161e-07 -5.403287741242712953e-07 -1.673448217991100746e-25 1.439208152423587517e-01 -1.508361692046328861e-01 7.969038528337442030e-38 4.554887293163477537e-08 -4.172720393004044070e-01 1.002340065079472819e-01 -7.937736598272668309e-02 1.987290036814191030e-01 2.267187385615334061e-01 1.795371515963336828e-01 5.026617951944210239e-39 -4.413275662195040860e-01 -4.889886940464462095e-02 -2.769576592783679625e-01 1.850568389501691946e-01 -2.669104088248678841e-01 4.770495825658774065e-37 -7.727411495208175683e-03 -1.615504728505387511e-01 -1.824281512384335058e-01 2.940468550876969636e-02 -1.192578438334333246e-01 9.044361658962579709e-02 -1.422116437544574129e-07 -3.286446868603690381e-28 1.130498664410468646e-01 9.024642268767263387e-02 -6.765624129309622870e-29 1.275478038947595316e-01 5.692797244627709227e-09 1.262793251461169775e-01 -7.574833456514581953e-02 -1.751324949831429556e-01 9.571828146635781576e-02 -1.224927590038573924e-06 2.411308410625473686e-01 -3.825950066448410292e-01 1.887458880448202037e-01 1.233825003408193094e-01 -2.128228672278749747e-02 -1.610311169860276226e-01
-9.500441928661607777e-03 2.712841734217957719e-36 -1.129283799257189023e-39 4.918090733545752574e-02 -2.535479684939562772e-01 5.838046886772854105e-01 6.074004259702338315e-02 -2.279503559467938728e-02 3.523658161197017469e-01 3.436792132621888770e-21 8.571856797595149569e-02 -5.627951067384158179e-01 1.379403761070207950e-02 -1.156037409967099379e-24 2.622506660199633854e-01 -1.711870003179614408e-01 2.158469453503416013e-01 -1.414388270739809560e-06 1.782193164404147201e-06 -6.698410426035013350e-38 -3.876773895266468524e-35 -2.681486175695001046e-29 -4.642092063147544841e-15 5.867239609051607685e-01 5.377482475039586651e-01 -1.573408327539261020e-01 -1.748745510701480558e-37 5.884249022497992643e-01 5.712666036227790345e-01 -5.600029678200353356e-01 2.381739402517305815e-01 -1.259043078846303759e-02 -3.851284581314886601e-01 -3.887043654439787527e-02 -4.117671413444968231e-01 -3.205815630117669207e-02 -3.760408514310888961e-01 -6.342361876453679603e-02 -5.298080885592981737e-01 -8.823244997293086113e-12 2.559216015572701730e-02 -2.028825494095438386e-01 -1.516478881074339868e-01 1.647841714971187699e-01 -3.024417606444429474e-01 6.157914288949437598e-01 4.786839315290827536e-09 9.598894289599724997e-08 2.721350544640903646e-01 -1.201565220064584466e-01 -1.234530145533471041e-01 -8.493336630740490334e-02 7.054308952389665540e-27 4.020581358771543878e-01 1.488815102410667723e-01 -7.883282500806836068e-02 5.709001326281733235e-02 -6.816653851336573142e-39 3.799108650252249197e-01 -2.824311104662448058e-01 -3.157416955600837460e-01 3.640870265365416802e-01 -2.163478518264358441e-02 7.635833708432671063e-02
4.107448115966520763e-03 4.261795436595259571e-07 7.264543602079259018e-10 1.106084218478251257e-12 5.707057545400701787e-03 6.042619851469169558e-39 -3.888782480513603154e-08 -4.798070359778078622e-03 3.382399255645007424e-34 -4.351209480829496532e-21 -1.838915441655409974e-20 -6.583355920545307400e-40 -5.412715047430138177e-03 -2.865397773698112856e-15 2.150647202342984704e-03 -1.761824866932852054e-03 3.071366206688290815e-02 -4.666234565950221481e-04 -2.904479284896735000e-39 -1.103044125209154870e-36 1.040663138793566937e-11 2.227175610570301599e-32 -5.310749730788866991e-29 2.256184984808558545e-35 -6.031580313650797449e-22 3.146624291565533525e-09 1.340698643348982149e-13 6.678023180903939343e-03 2.289900573416105257e-10 4.700544073992066890e-02 2.047380686509307074e-02 2.686186041379693204e-03 1.489042494063692032e-26 -5.441599105655431211e-30 -6.966118395437850419e-35 9.329366715653917706e-05 -8.330590989126045105e-11 6.383854156172323775e-03 2.004301092953449798e-02 -8.640335886734649717e-07 1.212859867137111249e-11 -1.556011850702910745e-02 -9.612774642065434819e-03 2.345766741012765902e-03 -6.038642919236163401e-06 7.425708253325915414e-03 2.751617075286604542e-11 1.094754859288303354e-39 -3.594063353744478967e-02 -1.297728903618101863e-24 2.347886153854025098e-04 1.359562514591208079e-06 7.244460121845422541e-34 -4.371473840521635112e-21 -8.547307485503260172e-34 3.039332120800680714e-04 2.886369072054464151e-15 -9.746293244240357999e-09 5.566385815768166859e-04 2.137716422586924229e-03 6.138275607417159158e-07 -2.245344217892195276e-31 3.316337942795405044e-03 1.227554459338041035e-07
-9.218387529561808402e-02 1.640709215613516224e-07 -3.858449677687862945e-28 -2.542038099625051339e-01 1.916313350473377586e-01 -1.307508296383312618e-01 -1.271499126752498435e-07 -1.195751133015916789e-02 2.068559439457272608e-01 7.036484402882672581e-36 -1.265350353373973120e-02 1.629241723912417117e-01 1.656625480374084858e-01 7.941225598664859439e-07 -1.183549156989649465e-02 -1.373218641427403075e-01 -2.964204801121371816e-02 -3.112176532066197043e-01 -1.180890112721110400e-06 3.644035775244955126e-29 -1.966812454557969225e-39 1.934372844195381642e-16 2.563357919977754322e-28 1.474324002850656290e-01 1.263153740254699953e-01 1.584198640694149118e-01 -8.097152830313725272e-38 -9.506700844423625341e-02 -5.630049211889609495e-02 4.226512014308717730e-02 1.351601117576406164e-01 1.015659216722082994e-02 1.060884168750528683e-01 2.588394214475947877e-02 2.900383432900832115e-01 -8.248661949284283312e-02 3.794552233434181909e-01 1.597201551784453166e-01 -4.145399520615858369e-01 2.312997904203293459e-07 9.422671427765247354e-02 3.154213108796334319e-01 1.463746379062759451e-02 -1.323358294275921998e-01 3.102170892861133566e-01 2.690560901844375047e-02 1.055773046134261679e-08 -1.717372689146277814e-16 -1.398785677744890932e-01 -7.936936934989941084e-07 4.553694613760399940e-02 -2.114993008261226437e-01 8.962491911353963723e-10 -5.851830221911395194e-39 3.469172100244314882e-01 -2.404279543500623896e-12 2.186203141322405619e-01 1.223494691946081624e-15 2.385578219951627332e-01 3.164421366470897001e-01 -1.882555512402717957e-01 2.571109256620379147e-01 -2.468943485548793504e-01 -1.393220806613070517e-01
1.650360566102793414e-01 1.540202653211969401e-35 1.131981436544075658e-13 8.373038367060556611e-03 -2.936916162915258477e-01 -3.040610498963327787e-02 4.389296253914799079e-02 5.816059678789087944e-02 1.272191529417982248e-01 1.319193423415078332e-39 -1.616431101915114799e-01 -8.496927948219958060e-02 5.915613909204956444e-01 1.374850999991118325e-13 1.248012299870632918e-01 -2.308596336183991182e-01 4.929819627712167529e-01 -9.487946139860509253e-08 -9.987334113788068866e-36 -1.766375747237026818e-39 1.240609780139522790e-36 2.496597721814708579e-25 2.581793943066404986e-27 2.984696341326354418e-01 5.834629074034380219e-02 -5.354189249954660750e-07 -3.386851483809843933e-39 -4.595113680253942734e-02 -2.119603440988464538e-01 -2.373392787164822770e-02 -5.132888100605850212e-01 1.399519351779084375e-01 -3.113631227110018329e-02 -1.576292094827249554e-26 -8.170053497850804369e-01 3.425436217167491249e-01 -7.632962326675344356e-01 9.735314339039626008e-02 -2.798432151277535085e-01 -4.114050997683851188e-32 -8.641411981991480029e-02 -6.793245425221728917e-01 -1.851446254109236633e-01 1.019998719044602903e-01 -1.922767359151202338e-01 2.255362264310381837e-01 2.406340972368281039e-13 -2.104365855249818460e-13 -1.840231165563191718e-01 -1.503870235041986914e-01 -1.585022976889693878e-33 4.304081814756344215e-01 -7.776016701252845351e-07 5.069876985638904765e-01 -1.482289191806618056e-01 9.699503541001254156e-03 -1.702503798242240851e-01 1.632983199283102484e-09 3.089186056019805338e-01 -8.271182246296781004e-01 -4.871225732860507275e-04 2.953984861395299588e-01 2.349885496986977573e-01 3.257878993330089457e-01
7.425191362909023401e-03 3.667507650767666671e-12 -1.676781063706007235e-38 4.283016163150983602e-02 -8.216676173747375356e-02 -1.799687791339471266e-01 -4.917391590285818959e-02 -1.529833948452864190e-01 -1.019979692804161286e-01 -7.496440681912743027e-11 1.499771802644866148e-01 -2.024177751569484762e-01 -2.426610122690174287e-01 5.164582191325645297e-31 -4.675828030255484158e-02 1.564430678963566190e-01 1.205576821950880007e-01 1.148028895115334319e-01 3.216789808185741242e-38 1.297511639538195316e-24 -2.785507090763221552e-16 2.509012705463705074e-06 1.033150520350141812e-06 3.420309640455851397e-02 -7.986256586931825274e-02 -9.203733413496368403e-31 -9.626538334833979328e-08 -6.902221207268305347e-02 -7.167545676439797397e-02 -3.580598970366075107e-02 1.483536820150114233e-01 2.862384968991849715e-02 -2.500557212623914505e-01 5.096994374930386655e-38 -2.503473755341429907e-01 -2.792457483499460533e-02 1.411876042238231488e-01 -1.315228829535353139e-01 2.403355554218648826e-01 1.819316077996390488e-37 -1.927321563276555502e-02 9.850450007374456085e-02 -6.328383815670560186e-02 2.193971676983136609e-01 1.545889887522964301e-01 -1.054153710680750915e-02 3.443223720489251675e-23 -1.129631967365647157e-36 2.387396574064503119e-01 -1.091033593919292360e-01 5.286577549626828021e-02 5.023428248406330149e-02 6.543070600712827695e-22 -1.281526132946429197e-01 6.831670521678405439e-02 1.280713059650650798e-01 3.662590174970790750e-03 -8.181769861013613761e-18 1.908604390971362086e-01 -1.608105465045282512e-01 2.109809913907959855e-01 -1.652284508033069199e-01 -1.197499896842775996e-04 -1.185276291364810303e-01
-1.687822199775406984e-01 3.418326947239220861e-41 -4.530240429490244370e-33 -6.427956146917385580e-37 -5.020691852834471280e-01 7.560426882059953502e-02 8.135308398188007889e-07 -3.664042139722979430e-01 -2.678429884995467414e-01 1.084412373982189469e-29 -1.242606416098082645e-01 3.102861074562910382e-01 5.647196310209099401e-01 1.791355579717384079e-38 -6.436870594313945371e-02 -6.861569436222405560e-01 -2.050781126659945719e-01 3.436571763201760055e-01 4.397090771408215612e-31 1.817296218491120236e-11 -4.196106502950234838e-38 3.082004256959723887e-19 -5.866452466525617224e-36 4.323344602098477263e-01 2.229174659915826306e-01 -1.297114552263957665e-01 -6.152501672642360875e-07 3.027072235491495844e-01 -3.168388227963104403e-02 -1.739688476688979191e-01 -1.052155601269150753e-01 -1.784085181112121969e-03 -2.463384668965645230e-01 4.109613577400125655e-08 -1.767798349626627241e-01 4.685660639578854980e-02 -1.975223489812867883e-01 -1.945611223345151963e-01 -2.342393284961967855e-10 1.585490934011700163e-07 -2.456181614953094616e-01 -5.097657884605020229e-01 -3.207913991900140371e-01 5.199669029083255900e-01 9.456039040885354241e-02 1.476667164785765984e-01 -4.876305884663711478e-07 -2.562690877669931744e-10 -1.246939762781517774e-01 6.686527941653931547e-07 2.618826846800633833e-03 1.454872423181405583e-01 3.745199800629422392e-33 1.243123781480997227e-09 3.151569947284705298e-01 2.004712304740315884e-39 -4.034325152598849940e-01 -1.729234251072143961e-30 2.035042722746673860e-01 -5.901392397912884613e-01 -2.594000982207306794e-01 5.521283625265976935e-01 4.736510174024304021e-02 3.364589634147683306e-01
1.886752127323536588e-01 -2.463921947634260003e-08 8.801118559951775622e-30 7.880303110600214711e-02 4.510739747868142135e-02 -2.516685437674446302e-01 3.977362062506110268e-02 1.456403834710178480e-01 2.754170201430168330e-01 2.522383481425999698e-28 2.301665671191464174e-02 -3.982366080771410771e-02 1.358798081168500800e-09 -1.127608864975681931e-37 -1.603738369832636845e-01 -2.373400593277227022e-01 -4.172308238244139544e-01 -8.280619129889346675e-02 -8.602614634912073099e-15 3.748889127089762656e-31 1.176195296879340925e-36 1.975549146046886174e-32 -1.003086167553859793e-08 -1.402744240932763398e-01 1.324200698625159489e-01 -3.519781690864052829e-07 1.145718985184073642e-06 -1.008953884632333708e-01 2.056286267228790710e-01 3.931933559006394602e-02 6.659255190691570903e-02 1.708497455789980968e-01 -1.091362147983278852e-01 -1.198418286183219790e-36 -7.307256690978393914e-30 -3.132696490746295082e-01 3.365033527954982562e-01 1.469375446192108803e-01 8.148803856204124563e-02 -4.012619401828694110e-38 2.250316454060304894e-01 -1.349275149509720183e-02 1.032682252266561851e-01 1.698044702721968752e-02 -7.977279264735083475e-02 -6.553997143254193525e-02 4.753525445459544126e-36 4.498297558678646413e-27 1.570159750173250740e-02 -2.871558249515299144e-02 -1.258495153316272763e-01 -1.342180512274173537e-02 -4.016989300037976207e-16 -4.044703368601758331e-02 5.791630610501498355e-02 4.018013698040698300e-02 -8.287608343254938836e-02 1.016675288459556884e-38 -8.587838655411380098e-03 1.039382404829773815e-01 -1.167458655074191630e-02 -9.306433144002548841e-03 -4.450773793686043089e-01 -3.824130342879850097e-01
-3.640949136924256230e-02 -4.214077017987731648e-36 -2.451069089790272006e-37 8.676088413033468394e-02 -2.593046866167635772e-02 5.709283282213884619e-02 9.342298849461981580e-02 9.217831626710952519e-02 2.147892613834260500e-01 -1.393245678269037944e-06 -1.443258504980208246e-01 -1.873951465931896210e-01 1.132706796823925429e-32 1.405078367315468545e-08 -9.194122867482819317e-02 -9.967823469329373243e-02 -2.077517566122729087e-01 1.282954845450093029e-01 -2.792097700891923615e-32 -1.461302767826265017e-08 2.198997947866865686e-39 4.135733924627997168e-21 -3.097408539377791954e-24 -5.896330571639141205e-02 -8.267293409011598759e-02 2.050461819123367204e-12 8.368262736689995974e-28 5.220355653884642400e-02 7.970491045040675737e-02 -7.247975327041208948e-02 -5.916351717695494256e-02 -7.324709594346694164e-02 -2.751434858174959808e-01 5.739823598701410837e-29 -1.519444584206832705e-01 -5.259664776683620896e-02 7.096364003064885295e-02 -1.207726522236807765e-01 8.851216719379652320e-02 5.614585229397736190e-21 2.066206881274515461e-01 -2.723577113820907503e-02 5.525403915358638451e-02 1.845657005717311894e-01 -1.543913419914277330e-01 6.354771350370111427e-02 3.452534111107359887e-07 4.277485562064047736e-36 1.537158636321658278e-01 1.247984900732469205e-01 -1.238367898060404870e-01 -7.467882988119514676e-02 -1.724677166179107066e-35 -2.492222397710544719e-04 2.149765577327316379e-01 1.290053801137963918e-01 -3.196387235551563510e-02 -1.149332787520141644e-17 1.721655929974855448e-01 -2.962529749230592979e-01 1.585658739353119906e-01 -1.955290838394167438e-02 1.142753558019136417e-01 -1.026380643973851953e-01
2.006003055099067067e-01 -1.850301144416747115e-38 -5.290374500184557159e-37 3.182844335273959380e-01 9.681329525594883911e-02 2.772519433020695923e-01 -6.692828647177537504e-15 -6.077442187299623155e-01 -1.609808810887980723e-01 4.216454855423617486e-34 1.260776640664640902e-01 1.016243606465605243e-01 -1.415849879063577621e-01 -7.855242353530763104e-36 -2.805702271451210317e-01 -5.176146943258915778e-01 3.021145713815572287e-01 6.798839790472346878e-02 3.188082350387830736e-27 -1.431891020659786063e-36 2.476529716461225402e-39 3.985806844331834019e-24 -2.292418072680609169e-27 4.104410064828922788e-01 4.157338712595794461e-01 -1.561838544801145146e-01 -5.484225303531816796e-23 3.604625608180475060e-01 2.234962398963188934e-01 -7.947121077389963650e-01 1.232449042040242027e-01 2.629778575627702009e-01 -6.945373174374710468e-01 -2.217205285251232921e-02 -6.444684473039885564e-01 -4.123298370240968125e-01 -2.378164105198596057e-01 3.969363689157691111e-01 -5.348990393551802391e-01 2.307967657694282764e-13 1.214080166040734238e-01 -2.236045120823109966e-01 -3.003217443882881810e-01 1.741300128794802393e-01 2.204485482726892542e-01 4.165260517846073318e-01 1.593837031389069501e-30 4.437881764509340343e-30 2.303069518718985058e-06 2.192969325658897535e-31 -1.240801194539832009e-01 2.549894501971703906e-02 -7.622270789681117537e-39 -1.893004015820790096e-07 4.219015651681323753e-01 4.691280607641411612e-07 4.559174847066548852e-01 -1.690891948436370167e-27 3.047743978841640500e-01 -1.693468113328880642e-01 -3.656482505970461983e-01 6.874737441279178685e-03 1.763712166439407869e-01 -2.371042458007505127e-01
5.262825743884509688e-02 9.175503948397709136e-14 9.281977479640060729e-08 -3.334000710031962550e-02 -7.017931906731125768e-02 -1.238212655505363941e-01 1.405994014416473981e-01 2.026825078872590280e-01 4.781045839917352769e-02 8.984402467744889503e-11 6.684274222062816517e-02 1.564026725229682863e-02 -5.349435271289939564e-01 -5.912784392979460410e-19 -9.998093674352667715e-02 1.922908628371962914e-01 1.528156679748130242e-01 2.485946311750185725e-02 -6.301014595144236587e-07 -1.155927711990183531e-26 -2.911010646797441651e-21 -4.838348982674168022e-33 -3.727499912685063272e-08 1.683443070216471271e-02 -1.728297159460498444e-01 -6.554758746632866583e-03 5.290382992777819941e-37 1.359600205799614851e-03 3.594994442966222004e-02 8.751788446258401688e-02 2.005373123619242359e-01 7.232070180630842393e-02 1.086376147111692697e-01 2.501469885054810281e-10 -3.812711035703512663e-01 2.567369135786803577e-02 -2.234188742488645019e-01 1.246899179376295408e-01 4.527260993276017303e-02 2.979486833274721355e-09 1.561757564772008056e-01 9.522700903991739019e-02 3.948472013492608512e-02 -1.002284734090695684e-01 -1.960921258879008977e-01 -3.823641187842771044e-02 -1.324382388402103529e-11 2.471190465713840544e-27 4.079163470534348523e-02 1.567664477632328135e-01 -8.584076178618118072e-03 1.543104122845349868e-01 -1.194164114290089784e-09 1.365536142131228425e-01 2.338864312175536753e-01 -1.882299007733893859e-02 6.588235988650664732e-02 2.463393620042274754e-17 -1.082817095057390239e-01 -2.795499995877440136e-02 5.013268021699971572e-02 -2.099549433580555069e-01 -4.712559793008505062e-03 -1.544922032498797226e-01
-1.268452876754327108e-01 -9.368089702437891069e-10 6.091379897977924583e-07 -5.774950853175671028e-01 2.272616080335001509e-01 -1.295287477794843656e-01 5.412380515503856198e-28 -1.664618009186822345e-01 -1.401742548293466173e-01 -1.074305156874863559e-08 5.324815757870049460e-02 2.132992300192814994e-01 2.080895757033347226e-01 4.111031981617991934e-32 -2.520469614891923116e-01 -3.119950572274455824e-01 -9.764233596136215332e-02 7.341894110663192696e-02 -2.104853104053482866e-07 2.369612770926208178e-06 -2.148222063193854681e-07 2.776526936858674141e-27 1.509170172051558785e-06 1.324460426555836290e-01 1.701156355981219559e-01 -1.509200965956961349e-01 -1.074938636151285795e-26 -6.211235100824151478e-02 -2.534604226464238774e-01 -1.694601144987804564e-01 -6.888791541291580667e-02 1.861099593974807065e-01 1.900436671322110749e-01 1.646426638035159221e-02 3.197826338019269660e-02 1.720913075847713414e-01 1.837483021294084029e-01 2.724286147555416218e-02 -5.725498331080902670e-01 5.978735144875269598e-09 -2.546735591498563989e-01 -1.782858276038806478e-01 -6.298320050416950089e-02 1.014236832203081751e-01 3.227224279707294197e-01 1.233603823567142321e-01 1.339833688903410616e-16 -1.874521391426942295e-06 -2.456714372572705030e-01 3.423054937627113008e-39 -8.916823619922206734e-02 -2.648540450119997169e-01 2.102023047927794732e-18 -7.808937242772018543e-10 1.679461804075736420e-01 -7.435893624485155617e-02 -1.358662206639369152e-01 -3.653259123509831318e-19 3.478792116306883009e-01 9.781301054454957788e-02 -1.092121792528532170e-01 2.782225798722271493e-01 -5.577330717849181274e-02 1.706029299039827918e-01
-1.950849818713456807e-01 1.167251047628081359e-10 -1.849151554472770431e-08 2.822122932839213894e-01 -3.182894237886748634e-01 3.191283493154402628e-01 3.268508648703290876e-21 -1.076150202951724616e-01 2.005748231587809183e-01 5.221280085166137969e-36 2.188581732695371596e-01 -6.739511479031438934e-02 2.528011305934119157e-02 4.196171489074246218e-07 9.320908753144657721e-02 -5.035773547032817987e-01 2.342556513262742668e-01 2.318606294219510122e-38 2.783681651879829454e-20 7.865270403984763409e-11 -5.665534306867256646e-07 1.829225152900453402e-08 -7.051301796218861647e-39 1.975683373265137710e-01 5.668979619503998757e-01 1.258268705926657849e-01 -1.341257084111776720e-33 2.348672864494375512e-01 6.076192823307612345e-01 -7.901284533711699920e-01 1.936482013381650436e-01 1.273526884957899563e-01 -2.929388878260354989e-01 4.527189609224346878e-02 -5.498567618845490168e-01 -5.169708621402041571e-01 -1.939803764502068262e-01 -1.226797655447420948e-01 -7.472717727369537766e-01 -1.794487340763492797e-06 3.164251081152275602e-01 -5.439619265757923185e-03 -2.491916697767534994e-01 1.829856905862070615e-02 -3.741220133787339502e-02 4.543224327446009347e-01 3.811898986352452441e-31 -2.527709304490406036e-12 -2.329172518656594791e-04 -1.809211718015514147e-08 -5.230015906030537065e-02 2.313566994008208269e-02 -1.552001879906409577e-21 6.269150691718315960e-01 4.557814513758270958e-02 7.582755778166653676e-07 3.271398394687096145e-01 1.303065759054938340e-16 2.504510151224199066e-01 -2.134936760491376595e-01 -4.058062894448452584e-01 -3.658655269823379852e-02 7.798843418138844130e-02 -3.203587091110615681e-02
5.628485933551548304e-02 -2.451438132420147229e-39 -4.788218566148867910e-07 2.540055717072490227e-01 1.038598574592036194e-01 -1.299731436415318131e-01 1.509042411445239429e-01 4.821068110242542754e-02 9.273586919550270979e-02 -1.065578432088380094e-19 1.017522783183274354e-01 4.190157128385958024e-02 -1.772982824441402330e-09 -2.617536101331552477e-31 1.440109786471088227e-01 -4.772911904259749538e-01 -3.929819538118453637e-01 -2.036136795614926775e-01 2.401437679201471522e-39 -8.763580199034820548e-36 2.247996038157473259e-07 -8.125956644280299714e-19 -3.112474129683768955e-09 -6.571990482167942849e-02 1.525523264172549132e-01 -1.089049901603934235e-32 -2.203176384171434338e-24 7.614098669683003195e-02 1.434098830152081283e-01 1.235951735261043155e-01 1.441264718407418710e-01 -1.192006615994294604e-02 5.970989444275121710e-02 1.137929301315244478e-38 -1.085808793431542324e-01 -3.683586075079021138e-01 1.670949172355241930e-01 9.417750167619583224e-02 -8.142381927762991356e-02 9.942086703112993004e-39 2.298979141116012925e-01 1.657730510587833994e-01 -2.221522825297786718e-01 -1.595727680447127025e-02 -1.321159652851043864e-01 9.681857896925510909e-02 3.939522247665962324e-12 -1.411845468324380830e-14 2.700991409023903098e-02 1.093489652640107501e-01 -1.058992407658897184e-01 4.817294067970578908e-02 1.005682069563494678e-37 5.531625509136281482e-02 1.211008829162072559e-02 1.064494794281236993e-02 -2.669014677731320478e-02 2.006239181675296297e-09 1.177689302023185586e-01 -1.290999711431707331e-01 -9.087560520224986782e-02 -2.888651319100028845e-03 -2.262209574040311144e-01 -8.038524793577074556e-02
1.380127145914258613e-01 2.100569339543790606e-06 -1.712752297174906204e-08 -4.632345745295300965e-01 1.437889410621660535e-01 -2.582717710081297580e-01 2.601701047023972449e-38 1.467070850965132012e-01 -9.148488373962732068e-02 -1.635035543710940476e-12 -1.573361974845934735e-02 2.931402274776303551e-01 1.208069778242866765e-01 -2.360737833993730189e-06 2.123771215933113743e-01 -4.950844134276868869e-02 1.647344614046868938e-01 1.178526367063395704e-02 4.793926997554271844e-07 -6.500109790994166503e-34 -6.773525806816652065e-30 -2.420935070869606992e-10 -7.079347707908001644e-28 3.158455158916978478e-01 2.784946943334400404e-01 -1.900860893608313524e-04 -2.277557343593570048e-38 1.443207369122458672e-01 8.977459524067626928e-02 6.725892755090605302e-02 -1.537738841533738306e-02 -1.620046462580996549e-01 1.494768171865748507e-01 -2.552929922061439177e-06 1.257623919884530428e-01 5.720850655851481004e-02 1.565174813733419268e-01 -7.402170454635738361e-02 -1.394544241417294272e-01 7.708260634445897310e-40 2.652110513811177517e-02 -1.202196543915212135e-01 6.362003057278653451e-02 5.995351703060257387e-02 1.507457375434322622e-01 -8.072427734953024903e-02 -3.768711315520416205e-29 5.217840820785162562e-13 -3.629876686296781840e-02 8.960562906354170576e-02 3.475940499402517536e-02 -1.379949921592825424e-01 -2.061828742835590826e-07 -3.085655685031867268e-01 -5.764378083355569532e-02 6.104919539349026869e-02 1.789924704742519926e-02 2.800557507887008570e-39 2.340693630220580523e-02 -4.393944838879651482e-02 -1.057443212450990544e-01 1.314024710403998986e-01 -9.714015644465805177e-02 1.336803286340172148e-01
4.692726696178606272e-02 2.011641375926614270e-21 2.711724126614634923e-06 2.079390884296384301e-01 2.334730826858132102e-02 -3.493292455355737763e-02 2.994510925034694210e-02 1.161311513184131450e-01 -1.159884388898139856e-01 -3.438544548602180328e-37 1.401774752552157055e-01 -3.853027047254662524e-02 -1.459594838271763284e-01 1.685198621209106298e-37 -7.832982551707266816e-02 -3.365632534086517719e-02 -2.673785288518603503e-02 -1.680748603670799424e-01 -1.079906316271611560e-06 2.604407488376278841e-11 9.754192579137279402e-23 -7.986114066949146102e-40 -1.042700202594856335e-26 1.193739233301418096e-01 -2.083525024222262767e-01 -5.925687295596805273e-07 1.905605543147698079e-09 2.232200588547208764e-01 -1.163848881054227458e-01 1.687772033488587897e-01 5.990007776559152369e-03 6.055262499553401567e-02 -2.627504736073094094e-01 -5.815855856907599154e-08 -2.269081995905568860e-01 -7.770623493836280316e-02 -3.351306842012188175e-02 1.019481603230596167e-01 1.821036652357620744e-01 -8.067088128859209935e-11 5.916192049287609389e-02 -1.579166003068994406e-01 1.498134940090220003e-02 9.658691480786320283e-02 1.840559311798555808e-01 -1.501852179121425657e-01 -2.232526371470709932e-07 -3.846593260212108121e-24 -2.056117096502483102e-02 -1.025026733540460588e-01 8.975703572183009460e-02 -7.548144292264716282e-02 9.669226776171660773e-23 1.025731945966208980e-01 5.762676306702552848e-02 8.331972228999118268e-02 4.412520432612642395e-03 2.004814019374160056e-39 -1.391971316116748514e-01 -1.951097576336669193e-01 2.069620569412045086e-01 -1.910573893974143733e-01 1.129343174018414275e-01 3.417663609745465875e-02
-4.413628837407658490e-02 1.597492859231287443e-08 -1.196206137259854467e-06 1.692024090744075060e-01 2.399710173561859228e-01 1.045321803239896014e-01 1.336867197814345098e-01 -9.164969659039144678e-02 3.517717795428165067e-02 -4.453137586259591700e-21 8.566474494999647138e-02 2.042978413621718004e-01 -3.727536890986673512e-01 -1.283861130996575329e-31 -1.957324285507596184e-01 -1.263758161324363138e-01 -4.461262551562224406e-03 1.512572120918743712e-01 1.156765442666378409e-35 -3.766603241352661445e-32 -5.660056985690646289e-09 -1.886151547255771887e-10 -7.150153576062573732e-16 -1.580313845506110815e-01 1.042629447934525916e-01 -4.210992109288584846e-38 -3.942307713594379318e-39 -3.082669116669740084e-01 1.315647471467402962e-01 7.230302884285361165e-02 -8.673852184289214395e-02 1.845696854901565376e-01 2.466722686332835646e-01 -5.424971016321896705e-08 -3.179793893074156497e-01 -2.635194832628777739e-01 2.182617976280901845e-02 1.344695253558042536e-01 1.543790041428488580e-01 2.901838483491352845e-30 4.967811398229384640e-02 -5.359663169034051960e-02 5.410313252706548670e-02 -3.139676779814968427e-02 -1.253935869957441274e-01 2.046752865835733265e-02 6.629206879856718059e-13 -8.035410780099453557e-39 -1.800833152150053129e-01 8.962363699753039814e-02 -3.624892084701164530e-01 -8.934746500791607149e-02 -4.065231801099571537e-11 -3.974796504540892284e-02 1.950969710785036837e-01 -5.343363127845051665e-03 1.251422884600373042e-01 2.943813834231967572e-09 2.035303064062562173e-01 1.788782522638459604e-01 -4.855543227638293297e-02 -1.350844247448194577e-02 2.606995774519541009e-01 1.236051857796656439e-01
-2.253638033586676803e-01 -1.434198339339014165e-07 5.101527540139875476e-39 2.593648634585504209e-01 1.188867265638861165e-01 9.643089111825453585e-02 -1.376222408790026830e-01 2.041692600532078739e-01 1.616622843211617533e-01 7.293809715832602899e-35 2.799222428461261014e-01 1.579891210643663280e-01 -2.777178017407820332e-01 -4.332542517517001521e-39 -8.430849156682221346e-02 3.291350303377252318e-01 1.968321700651099460e-01 -2.523225441448869732e-01 1.469946462783622773e-13 5.611066976911214484e-36 4.441283927379974110e-08 -2.026379865793795884e-39 -8.996567960559371941e-11 -6.694152310654058469e-02 -4.280311677951810501e-02 -2.032084299366724786e-02 4.492821658786150659e-10 1.224637360748862501e-02 -1.121583861458471942e-01 3.389457391924399765e-01 -2.787950891944385168e-02 1.206373170895065280e-02 1.832186023110783657e-01 1.047277045008984769e-08 2.139431649014235659e-01 -3.072391218262996437e-01 -9.542268430688853609e-02 6.545167395996152881e-02 -6.743965331373558136e-02 4.289077459721986350e-09 1.411353142285652063e-01 4.018424562358892393e-02 1.723489111895048498e-01 -2.766872207751491231e-01 8.401766275683651697e-02 6.745715102768352900e-02 -1.459211915533306391e-33 -3.489354911443780950e-11 2.519169944383609638e-01 -3.854810931988975065e-02 -1.051933565307968110e-01 -1.205613144458899388e-01 4.224099439704491511e-38 -4.120304411083552942e-02 2.017385829530064512e-01 1.244669685974909568e-01 3.535215340019832730e-01 2.014389127997112997e-22 -9.776661403322406407e-02 3.161510933530970457e-01 2.239787066585018360e-01 -1.856001467641851463e-02 -8.010269859667840109e-02 -5.629949741237847555e-02
1.092126948959347144e-01 6.839383748238605752e-12 -7.506302206896103953e-39 4.800915955615305680e-02 -6.822255049500536295e-02 2.120476917469633904e-02 -6.278157897121966480e-02 -4.641058960636513034e-03 1.889694235663918476e-01 1.239364848779426641e-11 -8.123367872460782180e-02 -1.837827718563289359e-01 -4.885982226410916183e-10 1.540243427316026575e-32 1.266541996345640075e-01 -3.083422330065828957e-16 2.251027536589848390e-32 -3.887757149893018016e-01 -1.408363280486074256e-32 8.403082379007081813e-11 1.625961539986955537e-39 1.244672818526663056e-06 -9.874299358244215588e-34 -1.901595189931065133e-01 3.638893347761853331e-02 1.210027065581815379e-29 1.698711911367929219e-28 -2.505075995383716503e-01 -6.612793322258868345e-02 6.707286764926614908e-02 -5.919830344219305374e-02 1.602170464013506213e-01 -2.026855941611001299e-01 -4.991486613340150856e-33 6.802403238088249800e-29 -9.409357499692966269e-40 -4.073041939497560326e-01 3.116239892288421784e-02 -3.531916324272733609e-01 -7.217701825339185707e-27 1.776862398986992220e-01 1.839728822701279243e-01 1.770010897783488024e-01 7.571227578172470829e-02 2.928845766781928983e-02 7.301671051458835660e-02 -4.458325629130628149e-21 2.652656177251639063e-08 1.452756751506248112e-01 8.708456519734489656e-03 -7.201507558304832890e-09 1.030812945244229395e-01 1.219720388326684269e-38 2.751540395484642909e-01 -2.242564810111771778e-02 -4.152349301389417213e-02 3.727135556696833940e-02 -7.351265581517350903e-09 6.384939985810386687e-02 -2.380432366279487122e-01 1.900879711804476929e-02 2.000569324578601871e-01 -3.653959966576386109e-01 -2.317377018326877425e-01
1.194619124347508742e-02 3.361728775813331700e-08 -5.335277427083289125e-19 2.162156339668912797e-01 -2.685389535768688551e-01 9.233837499750791045e-02 5.086880737391182017e-02 8.267666376534807404e-02 2.707248987514560001e-01 -3.026384814797903218e-24 2.084388783643356113e-01 -2.412322008090287961e-01 -6.246728322945824198e-26 6.717431661526788370e-39 -4.696845625303410626e-02 6.460382289618185927e-20 -1.773051042180679625e-06 4.675872968534885063e-39 -2.074423018012657711e-26 -2.706972188191699402e-36 2.522473176753671089e-26 -2.100498060577715118e-26 -3.939817938680698915e-21 -1.314054563631876782e-01 9.983893146444176858e-02 2.729539594910217425e-10 -3.403140747583301951e-31 -1.299771886815040238e-02 1.148909779543676735e-01 -2.253554149040814247e-01 -1.465516293668230052e-01 5.412953937350217098e-02 -2.307396142771177619e-02 -6.752074311965052587e-07 3.161669466445931474e-37 2.423053940885867642e-06 -3.439463391505462875e-01 1.166375466639151814e-01 -3.004063600775010445e-01 2.500156654626216356e-11 1.326295908601526075e-01 -2.497760934300824465e-01 -5.330967662717064348e-01 1.223547626725890458e-01 -3.049940754778488264e-02 1.848119842634770582e-01 3.238983515551987921e-09 -7.066495690051010598e-39 1.409764372565058300e-02 -3.618474666485604896e-02 -2.348160209306994471e-28 1.727560152510999314e-01 5.661224963045744439e-16 1.916012335395818056e-01 1.835347617583921176e-01 -1.412326123427328980e-02 -6.763360626298983540e-03 7.814136752963473995e-34 1.832631305773062824e-01 -2.902952005905433674e-01 -6.817500109894139571e-02 7.624690716690235570e-02 -3.516180125176733284e-01 -1.599711532816099069e-01
-7.411531932978908388e-02 -2.405365682298223164e-32 3.304187237921477434e-07 -8.379273200306577851e-02 6.074220017243883718e-02 -1.910971657126503687e-01 2.089673110133156726e-03 -4.072311277969670879e-02 -9.506787732054128304e-02 -1.482323295555886295e-33 8.448036642367398596e-02 -5.684631673698723464e-01 -4.310652839343836473e-01 3.464619118686065538e-23 2.877997893579019029e-01 1.831733765518819002e-01 1.343378075118570880e-01 -6.900584353524638614e-02 -1.491081518588057583e-35 -9.256553966085623325e-25 -5.653350431821999543e-14 -2.615648057125423993e-39 -2.335346464747456914e-06 -3.498345017796787304e-01 -1.426734426876246353e-01 -1.061294407530206885e-06 -9.014848185810624415e-09 -1.740936689658449943e-01 9.291462690399210356e-02 6.269268411654177475e-02 5.780849190635690971e-02 -1.196105668843126940e-01 1.776871203441565961e-01 3.511439620312442825e-37 -1.158782174803233977e-01 2.371797240667477061e-02 -2.075291781008925807e-01 -2.902440105192363035e-02 1.218297152474070721e-01 2.168220676276152735e-09 -1.663739777157528243e-01 1.546784287785716305e-01 1.974956068028730638e-01 -2.688071289756797100e-01 -2.756260335683722862e-01 -5.594166618917613409e-02 -2.352629835862240667e-37 -8.175817014487469777e-37 3.179728879279830056e-01 6.439365308429212398e-02 5.985562306677599115e-02 1.198260932999356890e-02 9.217177560783678097e-12 1.794592608627277874e-01 1.473509689942278239e-02 -1.877600932223021379e-01 2.537208500103944053e-01 -3.036280441665857827e-07 -1.468292526096604544e-01 -7.557012498680212853e-02 2.083810981218389979e-01 -1.648414882334097165e-01 -1.685669223862129862e-01 -2.520602719848373252e-01
-1.235609810759029023e-02 -7.503059159604251835e-34 -3.237937549977191459e-09 -4.883084679197208927e-02 -1.782629216869668909e-02 -5.040720710650786751e-01 -6.820849538352108388e-02 -8.378084044676148423e-02 1.525843542065836167e-01 1.540420814377530242e-30 5.099793505477943217e-02 -1.347750902697685271e-01 -3.548170368892315518e-01 -1.943740822878319569e-06 1.006354295873254090e-01 1.777823135943862320e-01 9.218416532303448652e-02 2.773761649292511011e-01 -4.808371237783555850e-23 -3.365239834995433593e-09 1.919355920321043168e-08 -1.338135027830707396e-07 -6.587339351841064574e-39 -1.142537405686242097e-01 -1.341909613831897830e-01 -2.316236159669477221e-37 1.306414853652286744e-25 1.166925883497349631e-01 5.686125093818653053e-02 -2.125639791359941189e-01 -1.449907301400621684e-01 -5.520337024112292185e-02 -4.266599894974270613e-01 -6.426684756685640346e-23 -1.410163530983635782e-01 1.775533996079807775e-01 7.066894438721782468e-02 -2.612068819171260280e-03 1.647559375673403048e-01 6.015283115003220622e-23 -5.790570280342143689e-02 1.285187988826812233e-01 -6.843285249950833982e-02 2.380144901537667723e-01 1.686930065558344682e-01 1.379197651593413454e-01 4.896695321163220021e-08 -5.280273878933229704e-38 2.099060580724632693e-03 1.814161404561684746e-02 -2.435032514878244722e-02 3.011295102318617758e-02 -1.679816470402809560e-25 6.961094483522506371e-02 -6.511280432722449385e-02 -1.319612059110505387e-01 -5.685328297524344654e-02 -4.594860588710725417e-10 1.670860256658087406e-01 -1.018052401189700751e-01 -5.659004876331978628e-02 -2.868860811191177307e-01 1.633602555166109582e-01 -8.784839383041490035e-02
-3.705942413876216895e-02 -9.903112556918235611e-08 -7.658055933497423353e-38 3.073870682023600170e-02 1.792699863012237327e-01 1.558410211800794476e-01 -5.726808729439578777e-02 -2.955759997308201464e-02 2.174012923907669981e-01 1.609048517675963231e-38 1.587091727908665206e-01 7.005953301142552048e-02 1.196267117180857681e-01 -9.324331649993148416e-07 -6.291746215082714977e-02 9.253628227461523081e-02 -9.657644126707196769e-03 -4.444475565437870368e-01 -8.001196968382201547e-07 2.089119380924812099e-35 -7.090647024349662224e-11 -1.119961215147248728e-06 -5.578474245085845561e-19 1.235204642814432402e-01 -7.663570838952041275e-02 1.276134647608118677e-01 -4.815607126241584858e-09 2.808049079712354734e-01 -1.086777900052499357e-01 2.874705211186073250e-01 7.080956819763498111e-02 2.568071947893269535e-01 3.476262007263843934e-01 -6.107589564458729831e-02 2.325978872402909015e-01 -8.898196420845742860e-02 5.696232066428968954e-02 -1.693862449940784776e-02 6.576218746221898503e-02 -1.377630222328188731e-10 5.721086319609972048e-02 -4.477273852708499313e-02 6.195028673063109059e-02 1.749732881165614873e-01 1.007880554407089152e-01 -3.582663278616244479e-02 -4.080932258670317498e-21 -5.573576630563383586e-13 -2.176890019554357236e-01 -6.936876518532134051e-02 -9.286540229072728914e-02 1.177624505674615685e-01 -3.606955984035937750e-38 -8.526289303907688688e-02 1.852947118343859778e-01 -1.407217233479002294e-01 1.213336919253955731e-01 -2.677235357618917780e-34 7.710295098821118298e-02 5.788428435645975867e-02 1.793106229076117664e-01 2.801110992038263747e-01 1.075381791058823422e-01 2.908266328789874677e-01
5.884168698120612051e-02 -1.698614574485116808e-13 7.099891873524101132e-36 -7.831520893181452558e-02 -2.381175723041691061e-02 -7.297505717184771257e-02 -1.042994761668300102e-01 1.738697813440415463e-01 2.222633053580776175e-01 -1.999089310859496497e-23 -1.277553100473468282e-02 9.264491434812045789e-02 -1.413802339243517790e-09 3.380207680960991952e-14 -1.446842342066091969e-01 -2.880018794670191062e-01 -4.939095539890661635e-01 -3.020109259970761920e-02 2.365453705685110412e-07 -2.444377312739325956e-10 -2.185430938680330319e-40 1.348205077211732994e-06 2.517651977683552804e-39 1.895313270166493758e-01 5.197077527024413640e-02 -1.945513314443852166e-35 -2.309584167971648155e-24 -1.761404453808958770e-01 1.093096162138818134e-01 -6.174330698959226010e-02 2.054641512611167335e-03 8.686064369138865593e-02 -6.076005351437711172e-02 1.003583565740678222e-09 1.334150239987884242e-06 -4.012732555064456030e-01 2.347677957578970798e-01 1.490721089702506941e-01 5.052656741185526657e-02 4.345011057453494125e-07 -5.127395169696901539e-02 -1.015695230586805137e-01 7.150496103351093591e-02 1.024608312825734391e-01 1.266955212405368181e-01 1.597704200652591278e-01 -1.669180773607660768e-07 4.665660285698123608e-09 8.274123699687364886e-03 -9.157741154412426046e-03 -8.056660178032208630e-02 1.919160645251563879e-01 -1.342326296032208786e-06 5.835071144730172299e-02 1.537801249294316053e-01 6.604664085146660923e-02 -3.706524045129346023e-02 -1.002446783231869425e-09 4.698673394029848245e-03 -2.812550792474750594e-01 1.415079668103101929e-01 -7.836574846164826025e-02 -1.611437984335528373e-01 -4.928647320332308485e-02
-1.565205908461251016e-01 2.657390950505099041e-06 -4.299738425460553607e-29 1.999127709029975275e-01 -1.370147454352392269e-01 -2.821989213612763892e-01 6.622080741587400843e-02 1.374987809328119259e-01 1.843603823910521244e-01 -4.479671060229329897e-10 9.729391521676387933e-02 4.814569772410248749e-02 3.082299290879809483e-31 4.197505443370930568e-17 1.026519075648966439e-01 -3.353250898118937395e-01 -5.887400676630462071e-01 -1.443148652073784621e-01 -6.964744999592536727e-08 1.076731105022727490e-36 7.076988352650454509e-37 -1.371108763562052166e-07 -2.150252699579658909e-32 -2.256160682181299060e-01 8.583042729319552422e-02 2.858813740260452284e-07 -9.560462998502103889e-08 9.944034621697618592e-02 4.279253886786376498e-02 -1.135524670694175869e-01 -1.381891422675252667e-01 9.171973637332711538e-02 -3.778394448764248181e-02 -2.439861230646884053e-25 -3.180006493540796115e-07 -4.482270040411681644e-01 1.572425708810388512e-01 -4.067554071413707201e-02 -9.824843904034927244e-02 -1.893900918192979616e-24 1.924430393010234941e-01 2.125707005463509380e-01 -8.326273991817215517e-03 2.972305801116392754e-01 -5.818570175990327165e-02 -1.175933209548714678e-02 -5.815010263936479175e-16 4.870805670506772200e-33 1.983211667031575531e-01 2.400034219076755890e-02 -9.750526972077215582e-02 6.697733872750977202e-02 -2.764307425776236158e-09 2.200497027639408409e-01 6.825273392572803188e-02 -3.000909590417769751e-02 -7.969344314448541244e-02 -7.756558683148126263e-38 -8.821735287493734368e-02 -2.350876457281152881e-02 -9.307694354779977308e-02 7.992949877637704759e-02 -2.470920038642021588e-02 -2.683577183547130596e-01
1.071445987028523394e-01 6.451935293408607483e-40 -4.468271687085724414e-10 2.255619652627127991e-01 7.865448599505926730e-02 9.606000554254040535e-02 -8.603719227850531448e-02 -3.311145268922600221e-02 1.163654967767012161e-01 -2.575330806226655196e-07 8.505245482464832141e-02 -8.425719515319040828e-03 -5.178681491745259491e-01 1.551474476374543013e-39 -3.178757759664511129e-01 6.838226110306585247e-03 1.897305250765917162e-01 -1.976191175918937948e-01 6.583807184640062600e-11 -2.494076741839115929e-06 4.715754091895284586e-19 3.836180990878915132e-21 -2.904019806170240872e-28 -2.451792630608688461e-01 -1.072608012163360353e-01 -9.868503715623197503e-02 9.703845913666039996e-11 -2.580965922082074648e-01 9.972180770766495006e-02 1.450542755694477770e-01 1.168872403243001734e-01 3.046798199102936922e-01 2.269324427975340785e-01 1.235142055391009186e-01 -7.827787321280858801e-02 3.633833412861472989e-02 2.064217609227876893e-01 -9.666206863816327599e-03 6.043134110576235674e-02 -7.062082055483113342e-26 -1.163960392346964912e-01 -7.775361414037036678e-02 1.274997566752625044e-01 -5.041095200456455205e-02 2.518750203096080664e-01 1.344479685370070510e-01 3.344712845600910625e-07 -1.805120742521612787e-26 -1.350157826822735441e-01 -1.541461945703097580e-01 -3.618684014167343754e-01 3.634959979638839340e-03 -3.524373479800424874e-07 -4.626482478327403891e-02 3.144535433778871680e-01 -1.102664826194563012e-02 1.833822953340235318e-01 7.004882540196378160e-39 -2.760491305850068175e-02 1.037303290071864559e-01 -1.954480620429686899e-02 -1.076198291326935924e-01 1.807240041241287565e-01 4.407157467760691033e-02
1.211610615780172456e-01 2.234224693060674373e-10 -1.976347703892348685e-14 1.233204553014356636e-01 -5.752469672681728013e-02 9.601594101917518276e-02 -8.471934501930249123e-15 1.924029396414472792e-02 2.286766996519780937e-01 1.154957982671271970e-25 -1.534003166436172516e-01 2.450333331629841738e-01 2.553587126475051483e-01 -3.233793456950248069e-28 -4.006906599758615350e-02 -3.136814993609911562e-01 -2.842005162635696455e-03 -2.036446027553844851e-01 7.894500888345473772e-09 -1.041124511113005941e-24 -5.869678387920859744e-34 -2.112923995101486495e-07 -6.918196031210656014e-09 1.069691059563164376e-01 8.418354671633061781e-02 1.044226510575527872e-01 -1.614373755697128800e-06 -3.213038565573182737e-02 2.595358919887443272e-01 -4.269182442014199386e-01 -1.051880909545704068e-01 -1.245167166703343119e-02 -3.021248585838475637e-03 -3.198621997441939563e-02 2.323909908468267393e-01 2.903259910557854928e-01 -3.927110786684187560e-02 -3.916004244161165951e-03 -4.142728546897174735e-01 -7.184411671704015517e-40 2.717986960703345223e-01 4.534141436292522115e-02 2.096004004574030521e-01 2.281465668020291881e-01 7.561738691517347344e-02 2.510733282498318619e-01 -2.210973079040532462e-09 -1.470283354587801370e-06 -1.568362916639598828e-02 7.515681086971952779e-13 -2.208821297321336141e-01 -1.449141420727971252e-01 -1.433580936681093274e-06 -4.250439274037718512e-02 3.440062334883394191e-01 1.998811346495358524e-03 -2.406552628530444493e-01 1.955766803499431221e-34 -1.244790392788694133e-01 -1.095010417751321186e-01 -3.435387316703915062e-01 5.223590700028144518e-01 1.433714838805612291e-01 1.744847731215517367e-02
1.256404760981155166e-01 6.595012169601346238e-15 3.302053015061380412e-15 3.514692970766263719e-02 3.303485149822127376e-02 -9.170724800026540391e-02 -1.257002229912998481e-01 6.234061458903349291e-03 -8.767299131794505096e-02 6.042421886522634161e-40 2.224087725715883090e-01 -8.344638045582417063e-02 -3.325077589389350829e-01 4.728732532781796685e-07 1.789072155111202655e-01 3.045435355145755807e-01 2.954031054649762789e-01 -2.212967193746154942e-02 5.993220222128928095e-07 -7.874431301447365306e-08 1.154923395518517287e-33 -7.018983290911271524e-16 -4.530997834743095515e-13 -2.590605034251806660e-01 -4.186060931855089401e-02 8.362353365973659858e-02 2.301153159884903859e-37 -2.105784654839055747e-01 6.650537076325938046e-02 1.915180569505622876e-01 3.559575509155012835e-02 1.288098463140343597e-01 6.620769349192501263e-02 -2.388282452612889781e-02 2.595916197536852765e-01 -1.140022436247879328e-01 -1.802018467566008156e-02 1.862750109391768105e-01 1.950487001598132375e-01 -1.692570443822301743e-07 -1.588724963037922711e-01 -1.075500216896077971e-01 6.270402613267098135e-02 -1.663398691342662938e-01 -1.598024253958172658e-01 1.286285840221648991e-01 6.401612973354617822e-39 6.433892272706543343e-20 1.103889593852802609e-01 5.137418041276869268e-02 -1.382749794127249021e-01 -7.033960761068830392e-02 7.281833057519307670e-13 -9.726600001777152560e-02 7.769860346195961442e-02 -3.839773657536009466e-02 2.534172109901179915e-01 -3.578496402132099480e-11 -3.132497079019972569e-02 4.554416790740200421e-02 -3.878628778478419165e-02 4.014753974034353246e-02 1.261034308741299514e-01 -4.560992842012829424e-02
1.313429389504517653e-01 1.047918139689546772e-19 5.417111611521223273e-07 -1.723821815423358730e-02 2.228151406521221845e-01 2.485708708957509172e-01 5.725538042595428728e-02 2.375906518971953318e-01 8.199878067624068179e-02 -4.237777926929059931e-21 1.967606193661053989e-03 7.190784370287447991e-02 -3.331485725310051049e-01 1.328156316568352233e-34 1.380909687697729205e-01 -2.092393598344884365e-01 1.555507087811425770e-01 -6.002201357978169394e-02 2.323459860729590873e-07 5.291965353239537638e-07 9.316136031603478016e-40 1.152345203329502733e-06 -3.673563078049806580e-19 -1.712768020789145196e-01 -1.497830879050366104e-01 4.304289297595619707e-02 4.267745612717276427e-19 8.170654691258807945e-02 5.935933883133475558e-02 -6.274647908469629942e-02 5.718375769146075149e-02 1.940611738634230587e-01 1.676078565088184313e-01 -3.034625970033268174e-06 -5.436528251114858268e-01 -3.832052630659199544e-01 1.748802737781939010e-01 -9.696667019582801139e-02 9.717214203039040155e-02 -1.750604039457132106e-15 -1.023480724848034075e-02 8.980534470722806306e-02 4.709972598453628784e-02 -1.132213422916619888e-01 1.232467483959318391e-02 -1.645977538252003380e-01 -8.347110179210533165e-41 -7.657775671769356002e-32 -1.376696505524610259e-01 -8.832912051875999038e-02 -2.126665293234420995e-01 1.660925153661834686e-01 2.224295119896343190e-06 -1.430154838584253574e-01 1.887864909888516407e-01 -5.902888099616091649e-02 6.558191664278324728e-02 -5.535654189321371463e-19 1.846809695382393424e-01 1.710112532982547007e-01 6.109665276824680080e-02 -5.584177851750595639e-02 1.759425100373723516e-01 1.059577141435713299e-01
1.915028321396295696e-01 -2.828283988047091099e-33 -3.686435262158777462e-32 -2.704967091205631724e-01 -3.464129114258009401e-01 2.647551937197150096e-01 -9.938737289761089000e-02 -4.216098723735374199e-01 -1.486231791144259906e-01 -5.532165650916463247e-07 -7.019179601090581588e-01 4.952509231516716293e-01 8.573346766115788053e-01 -4.022619199925949895e-24 5.751534242769681948e-02 -8.922038566065848553e-01 -3.422391974684924065e-01 7.612689831513035355e-01 -1.856320719878989058e-39 3.485147678612798362e-19 -4.030076585408359691e-24 -2.356254542252233547e-33 1.055391427483984307e-08 7.673221023642435856e-01 4.449538009120779791e-01 3.040071118200257633e-37 3.293222308384100748e-15 5.396644455189405498e-01 -7.946922444838673549e-02 -5.516849147588138713e-01 -5.088544947218441861e-01 -2.200012424717701920e-01 -4.541789966510192400e-01 3.622853732070930235e-10 -4.984989741707861466e-01 4.426793006276234510e-01 -9.651959698800050003e-02 -1.191808047355223110e-01 -6.242716574834831361e-02 1.524428689667498296e-37 1.990647250129378709e-01 -2.656202983962579478e-01 -3.520028847548341000e-01 8.324963898013527652e-01 6.597804255512969007e-01 1.340424546058492650e-01 -1.817077013808410330e-10 2.498677780788044562e-09 -6.470397413026968136e-01 -8.684992405977469410e-02 -5.645345174177632958e-02 -4.916891902990110363e-01 -1.808877058702875330e-09 2.646029251646252467e-01 -1.039727823446797567e-01 -3.483690163985418004e-02 -8.222523707448724517e-01 -2.535099736288640537e-07 6.356225636365233633e-01 -6.720340034172362920e-01 -4.405947578518223384e-01 6.338918155426574996e-01 7.095272267104663078e-01 8.721454474026638648e-01
4.320204970952154500e-02 7.239566409470021247e-07 -9.559934793494987344e-16 1.595513997821065844e-01 1.290018266895449073e-01 2.063582095342747502e-01 -3.721464034859289782e-02 4.316709762001698369e-02 -1.128763690139840230e-02 1.061578120356028828e-24 2.379057320773371731e-01 -1.321323858586606892e-01 -3.827942982564562224e-01 1.852088024299384962e-08 1.170660541558295881e-01 3.180805662175770765e-01 2.399774250644687024e-01 -3.018979712005991356e-01 -2.061667200082515178e-37 4.624397702422826547e-31 -6.632410719357289923e-08 1.615187645473593883e-38 -1.747471473975258121e-25 -2.784272862184259401e-01 -9.805774849794327008e-02 1.579582101161067231e-02 3.597010452189279510e-07 -2.631744807572740097e-01 -9.887124370615692215e-02 1.601949234655766496e-01 -4.916222586995651345e-03 1.801087396650310757e-01 2.904659171321261613e-01 -2.355842296253803306e-08 3.490733925366066442e-02 -1.904551064233947766e-01 -1.637695294194707052e-01 1.699531003705898879e-01 2.000026805963335264e-01 1.344011207168255730e-26 1.150382451757796243e-01 -8.190657921443371750e-03 1.286859851078355488e-01 -7.865004230452306289e-02 -4.827609229065990635e-04 1.345397452738681388e-01 8.441894026539857450e-23 7.410697292395177687e-13 -4.872784971686514033e-03 -6.775152541300194509e-02 -9.512311537074763512e-02 2.266012356489393864e-01 4.214828496617726252e-10 5.672135787453868455e-02 1.886454218268406313e-01 8.194522755407268946e-03 2.541848270493523021e-01 -1.552129960849378205e-41 -2.615674787185372566e-02 -4.522193009231727928e-02 2.015946763659835772e-01 3.376233836935392529e-02 -1.092346961289735047e-01 -1.651046198095912076e-01
1.316900610359763579e-01 -1.845441550875409078e-06 -6.311116276141713444e-26 2.616994399159543461e-01 2.091711802363025244e-02 -1.184534184852493316e-02 5.431426154502213416e-02 1.621218773762426735e-01 6.999449165702105458e-02 7.302712010196381970e-07 -1.358718649963093217e-01 1.141097746557156040e-01 5.337403751016280840e-01 7.626658629731227413e-10 -1.441966253798212250e-01 -1.591128081662283589e-01 -5.359827658155382618e-02 -3.926833375544985238e-01 -1.285023099587425399e-09 9.778168683875325316e-10 -9.720207270043886655e-11 1.821239997353923039e-27 7.093468222051443144e-26 2.396931120667580850e-01 -3.633718313686616630e-02 8.948660270642250225e-02 1.819243782085836282e-19 2.398592298089527453e-01 1.484427134394551186e-02 1.952667686060421404e-01 1.589647945304409893e-01 -7.089174835254963281e-02 1.807784388390008823e-01 -7.361543038665938066e-02 -3.048717653367409297e-01 -3.210721157166639417e-01 -5.670712834301055993e-02 -5.963341840408328820e-02 8.855501919680659750e-02 2.160084235764808432e-30 1.356188455195796727e-01 -1.325969550594271462e-01 -2.302043857123229620e-01 2.367883561353282540e-01 3.504090969005056039e-02 1.475194382144595737e-04 3.000669238631030318e-28 8.290005426965555573e-31 -1.592167208499881415e-01 -5.804157640744544294e-02 -3.779549532790100197e-01 2.474992422216277382e-02 9.842191991791369674e-30 6.574129736186812289e-02 1.324275219509878435e-02 -4.140871951512035964e-02 -1.535303091671906886e-02 -1.466309529250118352e-08 -2.477360620366400243e-02 -1.371221472435068811e-01 -2.455405946251351321e-02 2.302520032512363479e-01 -1.144203430217402215e-02 3.713613269937051653e-01
-3.046791966054319956e-02 8.610921700037564589e-07 -6.021931831948960144e-09 5.779727726245638408e-02 9.495309543454535234e-03 -1.818980374592358076e-02 -3.817059770844639932e-02 3.442189351621195020e-02 7.140231365324825608e-02 -2.053476748854734289e-21 -5.510460636824051489e-02 -1.085562164171262334e-01 -1.954745184247463865e-22 -1.007076159606627115e-24 1.931031150450843448e-01 1.397231540887179935e-01 -3.836170639806172142e-36 -3.136739612357499762e-01 -7.884500016418869669e-08 3.455981874788013732e-07 2.344801060853141554e-26 -2.786955035576215886e-08 -1.763612779206015882e-36 8.048502096122258503e-03 2.971822829582969686e-02 -4.792136187083540918e-22 -1.586815278137702928e-06 1.011714576939247989e-01 -2.819449900596020849e-03 -1.624379531223053494e-02 1.190735170436093698e-01 4.350262566723259866e-02 -2.737419627050237114e-01 7.598242605239706515e-23 -2.367654944784374033e-36 1.052684326133835555e-09 -2.861303110954173112e-01 -2.837914893577369799e-02 -2.880421506824045186e-01 2.453141468620215351e-07 2.028258264954256040e-01 2.129018024980312840e-01 -6.595441978055259502e-02 8.441249231417330412e-02 -1.125058229141727428e-02 6.502829499795073631e-02 1.170923940764733260e-36 -1.568279886857776046e-06 1.505901217874663078e-01 -9.948112352740746955e-02 2.230878857030951786e-38 2.872327946675497512e-01 -3.920370788540808614e-36 2.674238445457071678e-01 -1.939614790531689059e-01 5.106827379897410646e-02 5.664442063297143136e-03 -1.412784733405676800e-08 -1.154577155686120349e-01 -3.860656958648214787e-02 -2.036524573767666824e-01 1.393170998324771703e-01 -6.432433981971916737e-01 -2.893347067077208790e-01
-4.882586867361981414e-02 6.117103641113707719e-38 -3.891981230718948820e-23 -2.595574307680071913e-01 1.359454005537557297e-01 9.851857095136029585e-02 4.154986980067448726e-34 -6.504706670938163737e-02 3.059034794614432992e-02 -2.915180792804019380e-08 -4.588181619589126042e-02 3.840523358030423218e-01 1.669303040798137405e-01 -1.678512108396687748e-06 -7.300152942924270638e-02 -5.266637841986675922e-03 -7.947640122349990122e-03 -6.858214037799949259e-02 -1.662912646222351624e-07 -1.256443358947062054e-38 5.222791059785394188e-22 3.962328334193434091e-36 7.759996813239361380e-30 -6.283414359724254043e-04 2.848432209431989715e-01 1.041565642572342965e-01 5.308849385682368945e-13 2.322173704396066074e-01 -6.740553559100714853e-02 1.168260964293314219e-01 -1.227744206058844628e-01 4.555032984674452223e-02 2.095714578335447220e-01 3.744500012090819230e-02 9.612653372391348483e-02 -9.825394295118290711e-02 4.969119491028596569e-02 2.069131004640760718e-01 4.908816544391159803e-02 9.835813968593345643e-39 -2.380678020458234234e-01 -6.644097554637926062e-02 1.647564763728037729e-01 1.148897934551484368e-01 2.237288517009929645e-01 1.429870277321114609e-02 5.606638855996511854e-34 3.357772127415016473e-19 6.187520613867418529e-02 -3.443227995250386364e-02 -1.589034940158468717e-02 2.397826808455595302e-02 1.557327238464332843e-07 -2.668672660825103793e-01 1.629567796177787131e-01 -8.506472953862173614e-02 1.161707910728449061e-01 -1.191599183598473938e-06 -1.032568689262865907e-02 1.142630999685948917e-01 -2.083938259380908042e-01 1.603937374051246367e-01 2.259917303748692763e-01 1.459121741573430053e-01
2.391372184033092319e-01 -1.196276567370783688e-37 -1.407353293709856617e-31 -3.501929589381019281e-01 -2.533940456125859941e-01 1.373825048732008058e-01 -1.062785611924132788e-07 -2.392785463620707154e-01 -3.578385690772904054e-02 4.044711776340553232e-09 -3.724103798265393506e-02 4.169472373306464252e-01 1.697526710618910972e-01 -1.595995077194705124e-25 -7.028403423967542404e-03 -1.266463135479000135e-01 -1.435290444827870202e-02 2.886628293358515784e-01 6.496123604885928528e-33 7.397897600941548651e-33 1.741499574020578854e-11 2.611297334106807958e-14 2.377113379697006869e-27 4.363663594013703628e-01 3.423493324183165543e-01 -5.637241761786601282e-30 1.232549642066508836e-32 2.515122171054425260e-01 -6.825323000845243040e-04 1.003934814723286828e-01 -2.744325484188073760e-01 -2.887550881217121335e-01 -1.391128848458496325e-01 -3.703127987282455801e-40 -2.557812820131653009e-01 3.065468364022924108e-01 1.271348128196588545e-01 1.334155692963010231e-01 4.420169535564303503e-02 -1.190818529567713682e-19 -2.789858173823901444e-01 -1.600616832182055194e-01 -2.637066512662794016e-01 3.092238136296353579e-01 1.286134349961171597e-01 -3.094819485360408504e-03 -1.930851274966072695e-16 -4.300267584545912559e-09 -2.136406549052820014e-01 -1.501887088197841891e-01 1.194142892148715579e-01 1.219443750886963912e-01 9.749464044374336456e-40 -4.199084137868846489e-01 -1.938943628556853427e-01 -1.664240349909227867e-01 -3.470567424987546779e-01 8.286993137911501787e-09 2.288175958889009098e-02 -2.159231742288777733e-01 -1.096500733347824386e-01 1.580113749006742119e-01 2.958806507639185068e-01 3.984927459597172872e-01
-4.228386991697900138e-02 -2.153755136130422026e-07 -8.973068607256007542e-36 -3.189509914784953160e-01 -6.932692673403012019e-03 6.112712874109589578e-02 2.705919122659112310e-35 8.884008490227456034e-02 -1.431753707398905062e-01 9.863349275206134797e-38 1.239433652763177740e-01 1.577711077669183282e-01 9.798351809833594217e-02 -1.685763142791099958e-11 6.868227559648915070e-02 1.658486917528032012e-01 2.373876968180703984e-01 9.567090438716908951e-02 6.555597751397215125e-39 -5.109064200361875212e-09 -4.615028404137833351e-36 -4.422178508224064220e-09 3.003346885400587910e-31 -3.528688615863478234e-02 2.050297602774112382e-01 -1.218105029071176182e-01 -1.214676262174299571e-35 1.865128306762783295e-01 2.063360530717401331e-01 9.248309806870300132e-02 5.218216853004784689e-02 -2.541741023297143798e-01 2.216187912734970122e-01 -1.200768362516171223e-01 1.074846218615364835e-01 9.097913058438113210e-02 9.596092220745115753e-02 1.658397798006735480e-01 -3.218645163108293517e-01 -1.955677287818730246e-06 1.425171425741011966e-01 1.187421306830064444e-01 1.927023389531360986e-01 1.041908841838594391e-01 1.821555007304610230e-01 -8.951525799777315662e-02 2.062202684265585163e-30 4.205021449775266522e-14 4.644886250370282299e-02 -7.918027810979352821e-02 1.543313179360398801e-01 1.257631906665242771e-01 8.683776820091735081e-39 -4.459115061477398334e-01 -1.390357383570909322e-01 9.478477348135400105e-02 2.053056773110382982e-01 -1.129806919663845955e-13 -1.117749851359414598e-01 3.043630473917285362e-01 -1.476137637952560921e-01 1.318644409694099684e-01 1.613365724577855709e-01 -1.235562545304480682e-02
3.300096108349963309e-02 -8.607357710234682674e-08 -4.199789337006809116e-35 1.423181518882129792e-01 -2.429985946957312348e-01 2.844272914672403910e-02 6.521676960913339906e-03 -1.665905101478324102e-01 9.599248812449402354e-03 -4.183655159655502937e-32 -1.817586222542484364e-01 -2.746716279623670487e-01 -6.217679687204255008e-34 -1.118209697036526894e-39 2.540598105203629650e-02 -9.941787751079321500e-02 -1.008598828535231667e-01 -5.406631271233200420e-02 -5.355704220461556861e-15 2.798524604638833533e-31 1.338554644930388800e-39 -2.353002878420789687e-06 4.794115585021672020e-13 -1.993855568330278882e-01 -1.918506702552442988e-01 -1.336671504458217263e-07 4.901278772583361238e-17 -9.075588775558135479e-02 3.909758132515385731e-01 -1.618225674749970144e-01 2.937795696206316198e-01 -1.196125110492681221e-01 -4.307645198310251500e-01 9.377288186616195801e-30 -6.009363282676642992e-01 2.257104262102871961e-01 -3.501591237718226224e-01 -2.667570189049768836e-01 3.457893914573232919e-01 -2.104174204432768682e-19 2.547955817016132607e-01 3.983079802576039441e-01 1.961981607739109457e-01 3.961907598142608289e-01 -1.644112431795868856e-01 -1.328690676839001383e-01 4.995384010679045413e-34 -1.063317665869731476e-10 1.810890376937659973e-01 6.338428232469726920e-02 -1.245264537990899145e-01 -2.952469168027457500e-02 -2.013422055198655683e-28 -8.370491582454137047e-02 -2.199658683350216026e-01 -3.598821763314111882e-02 -3.177601891202706530e-01 -4.138364943279445631e-40 -4.545391547648575115e-01 -3.893539156164533832e-01 1.424771417638868165e-01 -2.186760006401793355e-01 -9.641230259703773009e-02 -3.205843494145079742e-01
1.550442013596035340e-01 9.664758659086664546e-23 -2.325587082073091075e-27 -3.597052726741969408e-01 2.444862192051215910e-01 1.756673233404579954e-02 2.141898821587461753e-29 -7.240808748714931686e-02 -1.612976843749112377e-01 1.432387463646146542e-27 -3.620921434058454319e-02 1.928065872863516106e-01 -2.805183364479946553e-02 1.632315637787469678e-31 1.572814064860814653e-01 2.379144903057337501e-01 1.779154401070370539e-01 -5.724562479326091718e-02 -3.552244565669864028e-08 2.135559490290645431e-26 -7.562669173229738539e-34 -5.693243044197071321e-38 -7.931547645649987178e-07 3.815290070166273140e-02 -2.749641538419453704e-02 1.201464176045484444e-01 5.134157679755499570e-19 1.121992980862343836e-01 -3.030735339723080179e-01 1.319014089078895946e-01 -4.708601256822068232e-02 1.128070162367677265e-01 2.358282778199216612e-01 -5.044391237896107827e-02 2.374715550606471548e-01 2.519214567502532365e-01 1.923078534579036880e-01 1.925867150403654526e-01 -1.879083008652079889e-01 -1.635444974345824209e-38 -2.892309828577435682e-01 -1.241313658453377378e-01 2.003602191204413852e-01 -1.515971402675133500e-02 1.788406021671653801e-01 1.014413251532453875e-01 4.883702482122316203e-10 2.637760526347942214e-06 -8.726081191108868429e-02 -1.275136184351469137e-01 -9.604837930199328772e-03 -1.404454830433825296e-01 -1.165635069211657606e-06 -3.049417617434443950e-01 8.307665158540025740e-02 1.397811764718705739e-02 8.094072113178765737e-02 -1.339165951843087699e-31 -3.323907355318114071e-02 -4.724890969294558846e-02 1.795668799700939067e-02 2.130158989865485186e-01 1.477365235713923308e-01 9.987370250757816870e-02
1.090020681035991229e-01 -7.410752830630670515e-35 5.122322876385493489e-38 1.695371768870257423e-02 -6.304689192301014822e-02 -1.423225255869905448e-01 -1.341468791661697092e-03 1.535519006983253887e-01 1.841690395396201330e-01 3.611957229933629482e-38 -9.230487929227527977e-02 -2.289937987390750218e-01 -8.749130520982240783e-03 -8.042927859805416607e-37 1.883188813913047877e-01 1.841045453711084023e-01 -1.133372612961447562e-01 1.718825517376354750e-01 -2.136966643644272153e-14 2.441400367662120776e-06 1.355652927175125355e-06 4.199705988699278229e-32 4.728141023413211183e-13 -2.169987796855863682e-01 -1.710964188151215537e-01 -2.710171720195665796e-07 -4.242276579816307965e-39 -1.239142916782938753e-01 3.854605142653382277e-01 -2.876720838413933112e-01 2.984802000380440412e-01 -2.260790664974970665e-01 -6.476005921503434626e-02 -2.188265760516032759e-27 3.653103338529040123e-02 2.179554367054395703e-01 -1.852076257888496669e-01 -3.066246080686462205e-01 2.351960172174391295e-01 -1.104567259689723242e-36 -5.191468309670640296e-02 3.173360969976061763e-01 1.017670970129860297e-01 2.640563239273013285e-01 -1.838911283575916655e-01 -2.720445201147901337e-01 -1.340695483622731801e-06 2.384864860464153309e-15 2.000888380180340653e-01 4.613644771831372504e-02 -8.486907454533328121e-02 2.032580427883761420e-01 5.493005391189970366e-07 -1.957762451509590176e-02 -8.862489638755086108e-02 -4.556623201194121703e-02 -2.952613742144877262e-01 1.165823881419650781e-37 -3.917092635853112181e-01 -2.854245729128278980e-02 1.685656705770696706e-01 -1.632873802218340886e-01 3.815686733221744509e-02 -1.248074550120854692e-01
-7.720581240647345099e-07 2.567704566782275415e-38 -4.539425586119766211e-08 4.974497752632981280e-36 3.815533356117204311e-09 4.464552035148587613e-09 4.036119115114177273e-31 -2.332592224776803539e-14 7.887868863101876080e-10 5.744652369999696445e-09 -3.929673538570568894e-13 3.320427326490992906e-21 -1.692898485609679065e-24 3.472190967385696669e-13 2.598343812976789365e-06 -8.343711667814713471e-07 1.339567194369628167e-08 1.483674709032742446e-34 9.711047439721647608e-07 -9.241160629293646083e-39 1.628384688154467431e-10 -1.674995127745074329e-07 1.729984347117671118e-30 -1.295698898752215247e-07 1.058259685964501670e-06 3.496516029806224156e-12 2.810819078987168165e-10 1.708219441333401925e-07 -4.386986593334872973e-08 -2.754726841222291216e-35 -1.029969347678748244e-07 -2.563631361308996934e-14 -2.082507912489823815e-16 7.433326840719176976e-39 -1.899458786273555838e-22 -1.508138098096052927e-08 -2.883860069726493773e-11 -2.862675507239695958e-10 9.580885190109389535e-07 7.977570255064022000e-19 7.548801645039488229e-07 -2.050474370317040067e-38 1.424612581164362418e-23 1.578150091083373218e-13 -1.816164071432879941e-30 -1.787166467372677190e-26 -7.075917132313767723e-17 -1.541924267050032174e-09 6.362748010742350556e-21 1.384511925305798726e-32 -6.186954829351591696e-31 -1.659404924583186225e-07 -2.725521650083764268e-14 1.021370722943347818e-12 -2.968899380106745056e-10 -7.489250324411172734e-32 9.217082934108646225e-10 -1.264063082408726882e-10 -5.093355246229484051e-08 -2.623288498683122247e-39 -1.548429026822674185e-26 5.186223495551697892e-38 4.255901406069896744e-13 -7.780382903725550821e-10
1.789816250783929710e-02 2.934018804359490294e-40 -3.962942779582671710e-10 5.885535927280665519e-02 -1.138207080337888949e-01 -1.329437803472826307e-01 -1.097375879228943002e-01 2.080816609174698448e-02 -7.741819954753220712e-02 7.588366313378677249e-12 -1.040618190459793591e-01 -1.414265206932767416e-01 -3.699904073160045215e-01 -6.757212327828756373e-23 9.134146860799055578e-02 1.676793488407605504e-01 1.719596022199692542e-01 1.835747499958798878e-01 -2.104766981554204112e-28 1.106670231914337171e-38 7.200971981701996987e-11 1.911349764930812040e-06 7.487250109201252525e-09 -1.350556000187032590e-01 -1.701805203465936445e-01 4.175758037539144978e-05 2.557444779631346839e-21 2.375838406122248239e-02 -8.547301688784526147e-03 1.657888248211679683e-01 -6.860217474428037705e-03 1.383137920030772239e-01 -2.105438242939595139e-01 -1.001226670979570895e-29 -1.715632068223045814e-01 5.406339926635639337e-02 -1.787333601524717930e-01 -6.663476560264548765e-02 2.801896074125190816e-01 -1.016562248150845524e-11 8.675302491642351149e-03 5.109325725933011597e-02 -6.910143148782420253e-02 3.106131693428157078e-02 -1.372663019365494841e-01 2.262060199534732946e-02 2.871536174091714121e-34 2.860846564053825581e-31 -2.152625718535695551e-02 1.380668175941852406e-02 -1.111389595949555664e-01 -4.928066593281702629e-02 -4.148946637075658223e-15 -1.271966283838534273e-01 1.386906630087299253e-01 -9.044435038649499548e-02 8.903166941300466597e-02 8.325920497037716585e-07 3.083796214489495716e-02 -1.236154040523749220e-01 6.027504100401499115e-02 -5.670249477944508398e-02 -1.145781933029943467e-02 -2.281075126459417013e-01
-1.740967604217035143e-38 1.270535682561302549e-10 1.006404066865185503e-13 -1.068654740429295071e-11 8.215491476512469718e-30 -2.639354840865257449e-15 -4.695135942070507389e-15 2.140276069882922970e-09 2.348179526679955230e-19 -2.808248022832729348e-21 -2.817426114062603764e-06 1.590230554394225951e-09 5.199994336483621279e-14 -3.375196246186584985e-34 -2.301897494586044645e-19 -1.730595166379343027e-10 -8.701036919229985541e-39 -3.444300370121010652e-32 -2.484690941028321985e-08 5.902669001980007183e-40 6.315010174864975489e-08 -5.243075965831364733e-07 2.413809928796234255e-25 -5.058346429367768549e-14 -5.888475050805185849e-18 2.881664140060202609e-08 -6.361934785017887590e-39 8.660755103339562509e-39 2.609786554707896489e-18 -1.325995526980040680e-10 4.038113243936392783e-40 7.413246238774822847e-38 -9.370869077613968386e-37 2.840206799884269073e-06 1.406850676993341806e-16 -3.309111804590587902e-36 1.527342042640362736e-11 -1.915951851820459564e-11 -8.180919907114842841e-07 -9.358788635583118306e-14 -4.839348043293279630e-31 -1.396491072385249447e-39 3.897724313535488423e-35 3.325727864427350300e-08 2.516077045880597665e-40 3.290858721882165358e-41 -3.177266007985492860e-07 -6.677178479675109149e-07 1.702088154553663517e-38 5.070851754589372810e-38 6.463191930190315551e-11 -6.569912090001624288e-11 -1.043823462598435816e-06 -1.009914020373445982e-38 -8.463345551352344687e-18 -3.280007782393824053e-07 -5.976067065048517911e-23 -6.875319504970204501e-09 1.207458242901912253e-35 -2.013099763761010971e-24 -1.329407688029200798e-11 4.426478554934409614e-35 2.808730698102672735e-13 -1.175899561989365210e-35
1.410964934708882623e-01 -2.223134247579687379e-09 4.067308631194756533e-16 -5.553156736645893377e-01 2.314249567460522072e-01 -1.698495725113545185e-01 1.040724123340755973e-07 -5.689897010188849080e-02 -1.372412318062106729e-01 -1.340094141659758956e-06 2.126079284474390596e-01 1.023903455415244024e-01 1.415914035723493392e-01 -3.382535752406391558e-17 -1.510165022566556103e-01 -8.478465488038014475e-02 3.971907482506140813e-02 4.939741402465638170e-02 1.311977718916567583e-07 -1.292110855737176172e-21 -2.097227102456068001e-35 -5.143371427983806835e-29 -1.773319848260703420e-28 2.128069571695321016e-01 3.722517312323697647e-01 1.222819842280717523e-01 4.327636871426195118e-21 -1.198289243799750131e-01 -3.259414583311996960e-01 2.113090032588393896e-01 -1.360096540545565336e-01 1.321999615516563364e-01 2.303414190299171438e-01 3.249187804654835726e-02 3.315334685341086995e-01 -3.441893548197823977e-02 9.399774153650258812e-02 -3.138412792873318535e-02 -3.883439955395061594e-01 -4.281750611039015908e-21 -2.127191434127123359e-01 2.390905555617162670e-01 2.187870367237444991e-01 -1.427090314776773006e-01 3.610241285545730955e-02 1.858618331247308963e-01 -1.729443627705322464e-07 -2.732824312875450341e-08 -1.966396685311237458e-01 1.764884974139913874e-36 -5.125825027120728405e-02 7.965663922532643937e-02 2.602399500555769361e-38 -1.703401034448741747e-40 3.910942588470155135e-02 -9.842696347331080300e-03 1.958185070451231025e-01 -2.993579862716734768e-19 2.006658694527661546e-01 1.906442088297215787e-01 -3.025925467578351874e-02 2.480207261284003151e-01 8.170675145576244969e-02 -1.015425547967619968e-01
-1.908358802362353501e-01 -1.789067326800803814e-14 -8.321194702847233875e-31 -1.610478259299063519e-01 1.522202220913725264e-02 4.698688682779525450e-02 1.175451081099348803e-08 2.544895292219291894e-01 -7.088651372397841710e-02 -2.261577136084490177e-27 2.142029990717002341e-02 -3.171102274775604024e-01 -2.445418893649753955e-01 -1.770016338564944918e-31 7.110715526485576754e-02 3.328251119659781376e-01 -1.578888746628406836e-02 1.209897166589085776e-01 -1.158528948669594622e-39 -7.143595613734478771e-25 -7.820735816734521780e-41 -2.108901875689531541e-26 8.357873327954181534e-37 -9.599749790445037678e-02 -1.154529688094095841e-01 -9.965565046377124203e-02 -1.244336236101666382e-38 6.856270733396979677e-02 -2.010171805436484771e-01 1.490843359713932004e-01 7.324771666520109303e-02 1.390096590544584454e-01 2.458743141033299384e-01 -5.228144667760944076e-38 1.647854645085293224e-01 1.509674894285010227e-01 -3.139408714672201756e-02 -5.886381806378643972e-03 -1.020372182046131171e-01 1.337765912680444611e-11 -1.163418431705470213e-01 -6.768700541117655956e-02 8.986738903049207305e-02 -1.295943465998006250e-01 -2.045246032963041471e-01 1.807416450168074229e-01 -1.079041233704436116e-14 -1.279886935152051368e-07 1.536737152315021671e-01 7.307901431925470370e-02 -1.449601103509070010e-01 1.363751596925400211e-01 7.990649374385024139e-39 -1.068212685734993839e-01 -1.746931545876398983e-01 1.198852137714071994e-02 2.451299470651494838e-01 1.741189377793225979e-07 9.466195644299217615e-02 3.197611132833814707e-01 2.225607421269603162e-02 1.223409875944168057e-01 -6.695076474172946546e-02 -9.586989997153388954e-02
-1.454664963715149306e-01 -2.792919437537529828e-07 -2.415179983596406885e-27 8.836981159271310726e-02 9.367396124478807526e-03 1.119656712984855723e-01 -9.597107219062586680e-02 1.380647705301445427e-01 1.163243567181794676e-02 8.921048271123179006e-12 2.186541453643245647e-01 3.531748774264452384e-02 -1.977324363838693089e-01 1.063941684385888216e-34 6.079420737365495014e-02 5.139834846094681539e-03 -8.670707908836290667e-03 -6.004375808734794262e-01 6.482613226401177934e-39 -1.238609881595868301e-39 7.898965764409779930e-11 -2.182402732995431099e-15 7.689268414661665518e-35 -5.751364931893712500e-03 -6.948568679480196519e-02 -5.730615854879518578e-02 -1.020027917259560567e-38 -8.730674978733474201e-02 1.467497015928884985e-01 -3.466396741269604093e-02 2.346701609908440067e-01 2.014488051715798422e-01 2.296617060334329996e-01 -1.313659484973796476e-01 -1.279990197952431824e-02 -2.541277231335665188e-01 -1.205344987375958493e-01 8.822025799485652686e-02 2.193238310240640532e-01 -3.661528780553416439e-38 1.253183235815769903e-01 -1.575283192795561005e-01 -3.073880559903712298e-02 -1.901958039872686246e-01 6.564096292731989857e-02 1.798187852570958534e-01 2.441552321594451483e-31 -7.329327406410142313e-08 -8.884670395205150617e-03 4.984051516611017613e-03 -2.946645209370741814e-01 1.093525973451086181e-01 2.477107768334679661e-12 4.011290335035170435e-02 8.388341838621378443e-02 -9.980323619042147376e-02 1.381697674419428146e-01 1.385706379443104322e-32 -1.081687479953789138e-02 1.684096617150324937e-01 8.665429288373760475e-02 -1.363125823712893203e-01 -4.194986846664523761e-02 5.141951234741157922e-02
-8.773913654723318467e-02 1.477680936898741513e-11 -4.796540889659944265e-07 -1.073429778898768866e-01 2.450481259047453120e-02 -3.140143911939212440e-02 -2.892447380742218956e-38 8.845458126705182944e-02 -5.982582595003435588e-02 1.994321439126002663e-22 3.625601787867563930e-01 -1.911821287705767480e-01 8.522651494037004893e-02 1.395408339773017126e-07 2.447958059287329846e-01 3.828245132435446618e-01 2.151950583675219797e-01 -3.015339407940024682e-02 -4.036943144615544971e-19 -3.789629840368697415e-39 -5.020058640512389492e-29 4.301722794508569311e-38 2.014336917456429741e-22 1.348989040168604436e-01 -3.084297143413539458e-02 1.015827398473052590e-01 -3.103823263261232080e-39 4.731220243540899817e-02 4.540569310818091120e-01 8.160773643307069058e-02 3.175214587569006319e-01 -1.430130437139264798e-01 3.394000203242153457e-01 -3.996593408173890194e-03 1.844091718991718865e-01 -3.614465539169189195e-02 4.608481562367853362e-02 8.309901518020700040e-02 -4.929470899993573796e-01 9.725324603939907079e-23 -5.944905359801496564e-02 3.920156564893721440e-01 3.066929962873091164e-01 -2.070613113861625165e-01 5.833591943540482327e-02 -1.863735797195913979e-01 9.254478927466255911e-30 5.624822380037118173e-13 3.406334014220908091e-01 -3.572562850850743207e-03 1.224376915041341940e-01 -6.291811156020553353e-02 1.980237454045825149e-06 -3.060522643898042072e-01 -1.016154055824250863e-01 3.969301500771112851e-02 3.777524666543461973e-01 -3.412971705951265251e-09 1.820239454744074781e-01 1.445187460272765179e-01 -4.351377503712670902e-02 -4.167407155272162544e-02 -1.900719255818231201e-01 -1.321501820193966559e-01
2.347992659430330614e-02 -6.927142721398237048e-11 -1.860256894326530605e-11 -3.564778460627438528e-01 1.686090125904113890e-01 2.231370029944191799e-02 -4.666890202044512647e-08 3.695710159463916344e-02 -2.777484473048615343e-01 -1.492218501838840199e-06 1.514201415604669587e-01 1.638635361265306511e-01 -7.674096671310096096e-02 -4.316304877507924509e-17 -7.508855995196532518e-02 3.109474569219778939e-01 2.813351739259851159e-01 -6.077731387919486916e-02 -1.023633118017384222e-16 1.299544671285100729e-09 8.901035500027450978e-08 2.827430718153286138e-37 -3.116626821217001727e-07 -4.323803523864831744e-02 1.872347203281477523e-01 -5.468519620077988419e-02 -8.873068968603690433e-07 9.105740227756241312e-02 1.377804972968411368e-01 1.877492202381268460e-01 -4.174482109481401568e-03 -2.627564950817001255e-01 1.387048364372585885e-01 -2.288749789640338525e-02 2.838400444423791469e-01 1.048393954245756682e-01 -2.090691070875439275e-02 1.770310046752856525e-01 -3.468888234052925901e-01 2.171510049271439516e-08 6.722282964079732970e-02 1.119488221060886829e-01 -9.477876206929662650e-02 -8.339505688123713054e-03 1.935315559740888869e-01 8.084849508926546593e-03 -9.492994166298220995e-16 -5.730247191593672667e-16 1.691089331258014694e-01 3.241685385024952598e-02 -1.043329264150103103e-01 -3.300262657080286349e-02 1.427783672353061604e-31 -2.876435490669371209e-01 -2.804757427609828602e-01 -1.034362021230144785e-01 1.706962039781458051e-01 -3.011827854867352991e-07 5.527729702515404159e-02 1.296218974862730633e-01 -1.799864869360575936e-01 9.627468375216580165e-02 1.890584212526828442e-02 2.943585275948870303e-02
5.271907026452603284e-02 5.627006468916034751e-13 1.894765150966340077e-18 -1.671577465036988008e-01 8.356383580164496172e-02 -2.073063025937174897e-01 -3.333538498019588864e-33 1.113648287931637421e-01 1.235965055645705246e-01 -2.277128156079460522e-07 6.646186057506996148e-02 -1.218539500396865483e-01 -1.588630732189587336e-02 -6.810500805992302514e-13 2.691692275486624181e-02 2.562791237529113419e-01 2.629765229515569902e-01 -7.167575416665907320e-03 2.356702699131940596e-26 -1.695262677371653831e-16 -7.504504281213648214e-37 -9.821776413804103150e-19 9.395722410884838148e-30 1.075521928589446286e-01 1.437101301848853485e-01 9.703968071045056265e-02 4.724135692525479284e-37 -2.193815633719662095e-01 6.355079243712529191e-01 9.536457955970914502e-02 2.914934856878844127e-01 -4.700480135941870891e-02 1.217072820691838531e-01 6.659144918437173710e-02 7.990776962738131706e-02 1.562584730691098100e-01 1.968421434501695377e-01 2.734076291477253728e-01 -2.675835627676421136e-01 2.191033156130632473e-37 2.362889326020330416e-01 2.053666640046380720e-01 1.462328119854472974e-01 -1.264440409206837312e-01 -7.526433138332694339e-02 -1.317683351787795887e-01 -5.214463780356622759e-30 5.142329106569728562e-38 2.624928565239559863e-01 -4.370610288054771875e-06 9.292703503846957980e-02 8.772606633377021124e-02 8.585278173758804286e-12 -2.398645900485709970e-01 4.196690951856324459e-02 -3.780442453384656731e-02 4.011262459523652901e-01 -5.223169908926030762e-07 1.597037051370161775e-01 4.787445944492668137e-01 -1.785073320538853592e-01 -7.710776177714325809e-03 -8.411213496817741830e-02 -1.450362051767300764e-01
2.279378301277544261e-01 -1.319594412075122184e-08 -2.135311297050152487e-09 2.769732232384005677e-01 -3.101568467341173866e-03 3.203783053302202560e-02 -6.900610725450301297e-02 1.808007963801885609e-01 1.252963785258099927e-01 -1.237409497772236449e-36 1.206058478974768589e-01 -4.621118247031066190e-02 1.061693947838464521e-37 4.998378789630938201e-23 2.284449825191479655e-01 -2.422727906881023963e-01 -3.946678097373196858e-01 -3.581781114509858255e-01 -1.030883643054694134e-34 -6.970866898745956011e-20 -4.144750749422620884e-15 -1.913428683734270405e-07 -1.373670192395150776e-09 -2.517905519641638196e-02 9.811515986117083643e-02 -4.128453655427919103e-07 1.106851404619693752e-21 -2.218343695375275537e-01 2.975202231611781198e-02 1.206620851636632519e-01 -1.378910078137031772e-02 2.451840717521092117e-02 -2.350405537160475400e-01 -5.467811024376867430e-08 -3.057384841067228357e-21 -9.194734115553070175e-07 -1.994437095028494811e-01 8.642778790231374353e-02 -1.461879992527801986e-01 -1.139578588276734903e-11 3.895697730264986031e-02 8.621113746057086635e-02 2.114016361759777640e-01 -1.713460043565195046e-01 8.623661144592542627e-02 3.131634734445638835e-02 6.156535995253538993e-38 -3.756231382752137469e-41 -1.937925491858479704e-02 -1.553183062956628446e-01 3.824055600027032237e-36 3.176862299983818083e-02 5.094917848125704765e-08 8.687865018373923387e-02 -1.575577915827607867e-01 6.336113068235224577e-02 5.124586266275452801e-02 -5.223376382717856123e-39 1.615673821174204439e-01 -3.750455214735913534e-02 5.688395804167705599e-02 9.650150022707316977e-02 -2.173105184616242469e-01 -2.170708708059645720e-01
4.318746954702069180e-02 -2.768464887292638497e-06 9.675033729933462678e-23 -5.093024206280458710e-01 3.959688232777752032e-02 2.591293675181067027e-02 5.409988545385091297e-38 -2.409909809202119557e-01 1.170633899755539609e-01 3.771321051844728461e-29 -1.980717392964823909e-01 -4.024527550334024428e-01 -7.919116635099012758e-01 -9.894599739463170757e-10 -3.487915292930464650e-01 3.290741539225403023e-01 1.065316671011567462e-01 3.518286256967039227e-01 -1.264367795334413704e-08 2.665267233158880594e-36 -7.460363304172185290e-23 2.868385572437031606e-15 -4.074568523705484125e-09 -4.543446012755217311e-01 -5.181173071616117926e-02 8.340051528902798356e-33 3.119800613366022116e-20 -4.687804569182840719e-01 2.619349896683684231e-01 -2.041709649029979923e-01 3.473577250898255420e-01 -1.654653267378752846e-01 2.555306249925337059e-01 -4.400144803720049783e-08 -6.047735112944831702e-03 1.552470154747636888e-01 -1.140214236568307810e-02 -2.339094000814114782e-01 1.765516245605741330e-01 -2.292165758406621020e-08 -2.447242909013208068e-01 1.958519663468431815e-01 1.161932817010501579e-01 1.197285692391891754e-01 -2.280790315705622517e-01 -2.971329314287660117e-01 2.058213521892396544e-09 2.435491955676300279e-06 3.646091010865081666e-02 2.736545045270762436e-02 -6.337364670430216396e-02 1.621483873369692075e-01 1.754672237335936784e-36 -2.791722191711010770e-01 -7.580933365677195758e-03 -6.502205128535376577e-02 -2.872043377434059797e-01 4.968780018521618797e-34 -5.238290383226796854e-01 1.883602534271034204e-02 3.524974628383291675e-01 -9.937008754150146450e-02 1.863125287048461032e-01 -1.090156333444029929e-01
3.620890362083518943e-02 1.611676584287392791e-23 -7.761766574012542085e-35 -5.549109285037365225e-02 -2.248767641854840793e-01 -9.155702509664186139e-02 -3.094499709392412728e-02 6.729444112372574144e-03 1.601371332589284491e-01 -4.218700619944964016e-13 -2.224566657350133814e-01 2.726777685978242216e-01 2.640135825324868013e-01 -1.488018364385181491e-39 6.466414268548441487e-03 -3.378997973586597703e-01 -2.637883487405476290e-01 -8.563864288978063899e-02 -1.088729706381686236e-08 -4.445484121114077467e-37 1.515381008043481855e-38 -4.439383435992296857e-17 6.068728519646294637e-34 3.228590509559299826e-01 -1.880193650592392740e-01 -1.012525476114034192e-02 -1.233483675222346398e-27 1.438087485868802529e-01 -8.782590582375400523e-02 1.866762623221130887e-02 7.293276705712289920e-02 1.893398712865649314e-01 -1.885029125045282472e-01 1.327501503338995548e-23 -4.487531217299086661e-01 1.512234732254651437e-01 1.287049645437048639e-01 -1.077659079810505266e-01 1.230413234988819854e-01 4.901750473993306942e-41 -8.385321656355308045e-03 6.239068210914324591e-02 -2.694979580525997953e-01 2.444611519213536754e-01 2.171147068858108459e-02 1.263942486228713247e-01 -5.986730688541213929e-27 -1.756448664357608020e-30 1.829143794741555293e-02 -4.977139336295810512e-02 -2.221391662233637015e-02 -4.366619535103393596e-02 -1.305867713207758279e-37 1.913894380167259213e-01 8.935777399906422863e-03 -1.451959546405296730e-01 -1.342116215670601520e-01 8.102153394358619175e-07 7.628412193240206862e-02 -3.804856196848667715e-01 -5.885898889374543974e-02 9.177789537834471489e-02 1.481055936823754415e-01 3.727880631311412118e-01
1.491071555576266028e-01 -1.809490624486913827e-38 1.350834883319798837e-32 -2.461397223679506197e-01 -2.162579438090487249e-01 1.234612308870619152e-01 2.451813160075522244e-37 -1.703992044137372583e-02 7.975534040794921009e-02 2.831653867957624245e-38 5.659568565151414099e-02 -4.898366665044417423e-01 -1.806544152607627851e-01 1.960034719417736878e-07 1.618205688423996758e-01 3.010420184245831687e-01 -4.274328969539977624e-02 1.379027350903948013e-01 4.050587204215371666e-36 -1.077917109876770267e-37 2.584987671650969801e-36 -1.868718137893561945e-31 -1.980849958598939746e-09 -8.311108583705724417e-02 -1.270813570967821264e-02 1.217666041061172577e-21 -3.879321671418775439e-14 -1.342030096099462444e-01 1.101838713410139836e-01 -4.067406320000175463e-02 1.189775057790646295e-01 -9.891798112529992526e-02 -2.389314990083433177e-01 3.706399933798121597e-13 -1.085485873340903962e-01 -1.164955062306797240e-01 -3.929874667185204867e-02 1.573394389006891325e-01 5.546575420395174344e-02 6.191971189981876802e-26 -2.598275943955905554e-01 -7.056168197384611596e-02 -4.369302654251078916e-02 6.770895476528335233e-02 -2.691069346871216017e-01 1.953586039419456799e-01 -5.895915234102498351e-19 -5.246121728150566263e-37 2.436210926587759618e-01 -1.532011406284778943e-01 2.880239204928431579e-02 1.451046827817089602e-01 1.763692853465738859e-11 1.890264976377016293e-01 -2.459001794176481903e-01 1.428857438143904257e-01 -1.274649605473449250e-02 2.344264882734203901e-09 1.428630134178708877e-01 -1.276307777468765337e-01 2.239144623572659754e-01 -2.989550095734097024e-01 2.056800836809931018e-02 -7.699637407628048824e-02
5.278576940019757968e-02 1.528059053768758466e-07 9.655944188248502552e-30 -1.498910989192741849e-01 1.099629497613995033e-01 -1.040892428840867051e-01 -1.183805978017128785e-06 2.508636896979771769e-01 -1.791441859002216308e-01 2.372419398138768658e-12 -8.512501011422380845e-03 -2.412140118343174544e-01 -7.399318967009588244e-02 -1.145739142668725984e-32 4.367467157507688713e-02 1.998266546087831830e-02 1.376463138490311988e-01 2.660134036864845730e-01 -1.009913524225192955e-35 -7.371321657864128862e-15 3.780489646935655379e-38 -3.493302046697519863e-07 5.815668459734715743e-12 1.534562447325675261e-01 6.865081995542564319e-02 -1.723071574366033878e-02 2.078958239925855630e-13 -9.455044823036716159e-03 -1.481971745436440890e-01 7.053677630168837809e-02 1.289655340246761150e-01 -4.082121611227070013e-02 2.837147482648864558e-02 4.764500867886094344e-07 8.306387029212078388e-02 1.087723651673218467e-01 -1.080847008146427479e-01 1.097987782320383743e-01 2.879974126192808362e-02 -2.667897401202285296e-12 -4.188332161255601260e-01 6.256023677379354830e-02 1.051456809597862280e-01 -6.483509611593012145e-02 -1.045759643156898566e-01 1.046879683410285519e-02 -5.996127802258580861e-08 1.893088595930194535e-38 -4.235915056174292814e-02 -1.111566260038521076e-01 -5.985425178898492321e-02 7.653731440659110319e-02 -3.033985595710985090e-07 -1.775204511823882669e-01 -8.186556190863977789e-02 -1.679036187287952578e-02 1.231378340067217497e-01 6.437679637077523119e-11 -1.133297623903791046e-01 7.849764637811626478e-02 -1.024909829191943123e-02 -1.378238202360263509e-01 5.113413021838415090e-02 -4.640653594347052963e-02
1.111185904255068274e-01 -3.173753633547103236e-38 5.205719919248595833e-07 -1.055639115434540282e-01 -2.525183799423302844e-01 -2.465575685189575483e-01 -1.140707356728764416e-01 5.381457051585023660e-02 8.199659854579871565e-02 -4.010629699933026625e-07 1.785995786438852040e-01 7.931825496300136391e-02 -5.907340763067627787e-01 -7.161640289687093646e-08 -6.885246814401427273e-02 -1.232674254090047050e-01 -1.042646066866754068e-01 1.686705224258068514e-02 5.464715776225999638e-19 -9.741606025264562628e-34 1.915526613948036117e-06 3.215138787562048847e-28 3.054298045108272332e-07 -2.468346672843495238e-01 -2.571591725707361720e-01 1.158552504695936599e-38 -7.349173992500562563e-08 -1.920516638867827697e-01 6.270340769505391987e-02 4.741559029189407887e-02 -3.019291519418076594e-03 4.011859480570539177e-02 -2.307330366822551715e-01 -1.088704136551172196e-06 -2.081893258432971905e-01 -1.543488107546722443e-01 -2.416331769825478260e-01 1.508529151393325496e-01 1.272629002503613826e-01 -8.434683899181172292e-23 -4.357302300082132457e-02 -3.530216203285588966e-02 -1.301950480099537955e-01 -5.648037787977421703e-02 -2.098124921368269002e-01 1.293403075120464207e-01 -5.107669090990522853e-29 -5.894486478633661689e-39 9.588190369707244587e-02 1.382799241975222748e-01 -1.893430515296651295e-01 -3.100008569348683060e-02 -4.206828720765668290e-32 1.217065581084066650e-01 2.398975879411230638e-01 -1.064538747748610265e-01 6.370321020139806459e-04 2.272850953753169599e-11 -9.606281738725012953e-02 -1.829150954088062664e-01 5.726032849214279796e-02 9.589248692072514790e-02 -5.671528697790141627e-02 -8.151925567315221333e-02
-1.328099960525211953e-01 9.372502179009166301e-23 1.999387960438614315e-37 -2.277922096975366073e-01 1.180291290832844314e-01 1.196925875521861332e-03 1.084818504334437908e-09 -2.067070709480922919e-01 -1.261998022102199524e-02 -5.930625802446922599e-10 -3.124777722010189246e-02 1.932281405996107981e-01 1.330594973294088601e-01 3.796588617398966927e-39 1.012466405929794699e-01 -5.387065443226460859e-01 -5.194590466396695888e-02 -3.404021281683773659e-02 -1.142560027441622556e-09 -8.227418579806697911e-11 3.100119509884997190e-07 3.409901181290174969e-09 2.625536619920089401e-08 3.247570037998601111e-01 1.337479043426547387e-01 -6.829646957761144332e-02 3.540661225832507580e-30 4.124154072558084208e-03 -1.225366916703548165e-01 -3.422066601546630005e-01 5.847540077132649949e-02 8.799427337584521391e-03 -1.629145633854789388e-01 -1.070206726390882622e-02 2.066429813033536511e-01 2.551079174108795145e-01 2.184752203044591432e-02 1.645578712984364089e-01 -1.920987731910564766e-01 1.374679279962115441e-32 2.904566782657502788e-02 4.523932476368956040e-02 -1.148958186721169838e-01 2.088385324978806745e-01 8.361619699306027664e-02 2.374790300297760504e-01 1.595713339973834414e-21 -5.329812580547787636e-36 -1.017690198038835037e-01 -1.124722702337992761e-09 2.131338600925531757e-04 -5.467499581638545630e-02 -1.112544000073696184e-36 6.410615807319080646e-40 1.063686463484923017e-01 -2.249036863057687579e-06 -1.493343350819741344e-01 -2.446636654635568740e-24 2.112595305171136029e-01 -2.923463371867631166e-01 -1.158799552522919302e-01 4.936035967756756127e-01 -1.194168342524627863e-01 2.815089083194760936e-02
-8.713638719372512886e-02 -1.716786964442029177e-34 -6.965431395933339265e-39 -2.872964274157030484e-01 1.283450260821271116e-01 3.408012815907245918e-01 -5.598629977333038910e-02 -4.445115632792411842e-01 1.170005371558305862e-01 8.902142896115776788e-38 5.583274032169086021e-02 5.533455345006337289e-01 3.810040776005155783e-01 1.016729982427042598e-37 -1.371580604374475765e-01 -1.877579999603913863e-01 -7.331799602021253637e-02 -8.156025800904075085e-02 -1.468163875262836913e-22 -2.763656232758649609e-13 4.687568214097715406e-19 1.097733849075413351e-27 2.749504051312603413e-38 3.330376886443951467e-01 1.715453479794879499e-01 2.468091805957899065e-02 -5.475894689000139691e-08 7.846005128752675528e-02 -4.602380970004755351e-02 4.156468164375388269e-03 -1.228090761173978168e-01 -5.808323866507301286e-02 6.337090929797931094e-02 5.086801025898827350e-02 -1.532431683378326082e-01 2.202233873522562724e-01 2.813620755331386336e-01 9.893690966023724331e-02 2.811335921596773701e-01 -1.285458080949544892e-06 -1.048147039668497899e-01 3.031924546943399676e-02 -7.681500752226871898e-02 3.255843995607439756e-01 3.437530686939019309e-01 2.417333905881289061e-02 1.207664678802438758e-07 2.569543564191247099e-06 -3.141312863578479275e-01 -8.000560344740199892e-02 3.022879641456203709e-03 -3.481551992732345169e-01 -1.174062045225107640e-16 -4.322791497677536676e-01 1.380462460546879808e-02 -8.255085888384353088e-02 -4.433598861101967770e-01 5.433534808576678876e-10 1.121532916463029161e-01 1.421817001359275238e-02 -3.989057941438187149e-01 5.307586245513394863e-01 2.061436160201092493e-01 5.099885273548880882e-01
6.767352990308919680e-02 -3.240909508900811913e-14 1.115757758682762183e-06 1.406162841179518785e-01 7.120129309650027882e-02 -1.827541885069010330e-01 6.845260765548454029e-02 1.976654485757226576e-01 2.124433332712899747e-01 6.849135406713626419e-07 7.569560362362974179e-03 -2.394678749143181185e-01 9.998820106451660072e-30 -5.721545015500559688e-23 2.127787751418076523e-01 2.940931588083892101e-02 -2.933774630170548321e-05 -2.638069990857997427e-01 -1.085891468958652340e-37 -1.364047973590789858e-32 -2.591930380201298652e-20 -7.839031897599596059e-17 -1.636286571341254002e-36 -1.110070117653260552e-01 -1.238646074861833313e-01 6.898126648415542645e-15 3.042349921247336830e-08 -1.599204183215613417e-01 2.252367909224614606e-01 2.038121590493831639e-02 1.580024037868273667e-01 -1.288112723965559592e-01 -1.086062411252680521e-01 -1.554038356872214273e-34 -4.995426944830983646e-31 -1.054124253821981522e-02 -4.967027697149450916e-01 1.295070806066669303e-03 -2.843589555648529665e-01 -2.351792446564424197e-28 2.224307506075604568e-01 2.744145844352990360e-01 5.776892725228984643e-02 2.157983684899721366e-01 1.183665029718029144e-02 9.426201004444811904e-02 -3.038908527305591163e-10 -1.888403694150141704e-27 3.096740345068477729e-01 4.899836484838884787e-02 -1.018995765109021715e-30 1.566150549286601523e-01 -1.146581933586822587e-32 2.130679775247624197e-01 -2.820294705386686696e-01 -5.594661942822534012e-02 -4.498263418203123781e-02 6.789319576636130527e-10 -9.169476161587045149e-02 -8.963049748470532097e-02 -1.503938768308866469e-01 1.155878466063412630e-01 -7.137674414725619920e-01 -2.970989613264851115e-01
2.856544657869430348e-01 4.365218054149209570e-29 5.121188272031703567e-10 -6.367253325435541164e-03 2.027828232091767602e-01 2.256018852661737240e-01 4.681020274929321989e-02 -3.772336783123075854e-02 2.243499190464853521e-01 -2.427783474908576638e-11 -1.823438309320518647e-01 1.544380999815533617e-01 -3.085629862289058223e-01 1.956910618642225199e-10 -2.271617715507897040e-01 1.045277561150836226e-01 -3.712878649112544283e-02 -7.815859248229649336e-02 -1.359341990740475887e-12 -4.075338530266503718e-24 1.488715225202389218e-39 -6.535282616168263263e-36 5.762880563459000297e-39 7.201845493199067472e-02 1.128244715920305868e-01 5.756368241526969853e-02 -1.095316393910390947e-08 1.031204076049036487e-02 5.259951453491150397e-02 8.146397072239117132e-02 5.304319831714876532e-02 2.711298232269477304e-01 3.510485098793469372e-01 -6.802275483341897744e-02 -1.831246017911410118e-02 1.222128264864746905e-01 8.407005976641453160e-02 2.106666813930733184e-01 5.953518888238059498e-02 7.809354938731419403e-34 1.713900151781418482e-02 -1.045808459086373099e-01 1.420806826313175675e-01 -1.740654564449160280e-01 1.869228639730007024e-01 -3.002932506355867823e-02 -6.365465309600491757e-10 -1.898573843875491564e-06 -1.879694530157523802e-01 1.563888026568800715e-01 -3.361322464880799887e-01 4.952138035715620591e-03 1.091065101006048079e-31 -6.033065268852821905e-02 1.375328228278051568e-01 1.224510817813449365e-01 5.202007887524326413e-02 1.119455056645047619e-39 -4.692785760846698850e-02 3.447528015826695214e-01 -4.055541247903812763e-02 -4.428641606604379749e-02 2.016047931747209643e-01 7.830204503338074329e-02
1.591646321539253450e-01 -2.191777510559669409e-37 1.021086114201608809e-14 -5.186096052335330553e-01 -8.218542806035031290e-02 4.035780559066748374e-01 3.679588965427301897e-37 -6.100371685611069017e-01 -6.156931434225833000e-01 -3.787572039710299501e-19 -3.676251769038919037e-01 5.749519006183102521e-01 4.840029006211660212e-01 2.451242790515326303e-06 -1.921251443504954359e-01 -4.289068524449431985e-01 -3.415862668905015886e-01 2.591154993946849783e-01 -9.741089556924023197e-14 2.435872843707808431e-37 -3.292863902512733116e-15 -2.863599739006207480e-06 4.416374718443556090e-08 6.528275694954791541e-01 4.027240032724584973e-01 -4.978853647500742358e-02 -3.419726843286143443e-09 3.175996892934956350e-01 -1.143535969329888546e-01 1.300602799818935049e-02 -4.304287553334602001e-01 -4.561815884272573673e-01 -2.244216425641214485e-01 -2.186488209992970860e-32 -1.827957622298761742e-01 3.877384964240560561e-01 4.208054122169130329e-01 -2.131497021197295005e-01 -5.031366711558252769e-01 2.320389851495573543e-06 2.778170886154890940e-01 -5.148288983931241791e-01 -3.355754442978839402e-01 3.793168830902722832e-01 5.076983574473867833e-01 1.709165356136118086e-01 -3.504054318253427752e-31 -2.887014531057980295e-38 -4.568222435120171676e-01 6.499850900397273929e-40 5.528709246747681716e-02 -2.567898101955808365e-01 -1.961029780445837036e-06 -3.121737722558571432e-02 1.097760667249684380e-01 6.918230977431926797e-06 -7.201154796128436120e-01 1.723161139941940059e-06 4.327523831403798926e-01 -3.568375643726038882e-01 -4.288140630909282325e-01 7.948385775255935037e-01 5.378262679095187071e-01 6.984600406354835034e-01
1.179893933578401582e-01 1.361027565909095514e-31 -2.203558716812208585e-06 -2.292881149860203083e-01 -2.861851136083908356e-03 3.100788830158886580e-02 2.196559721923774854e-31 1.739953073262451577e-01 -2.536835923266125281e-01 2.383214371151169605e-27 9.792434584972847106e-03 9.102872920869479328e-03 -1.246338974834833579e-01 -1.881194369206469081e-12 6.234122727797058311e-02 9.919786405437935883e-02 6.083980146074800116e-02 -6.181119961593039246e-03 2.503312827379003064e-09 2.333771904230887553e-08 4.762830237384732202e-40 -5.651677556768050730e-30 -9.877478835609786356e-09 2.523806778697804676e-01 -2.834678431339334587e-02 -8.894822490368500811e-02 1.851995099283821544e-27 -1.625895273366078503e-02 7.124279898584291726e-02 1.873852608122670016e-01 -6.126429759432285710e-02 -1.900250868350893477e-02 -2.445028510786373052e-02 -1.132113989675796739e-01 2.542056740145354210e-01 -5.208702886301821294e-02 1.673528084790768256e-01 9.920838434354278812e-02 -3.040503814988499420e-01 4.219580166874682494e-07 -7.988527103066461743e-02 2.118706844613364726e-01 -6.252817558827908351e-02 1.213461409575172650e-01 -1.166159660029903455e-01 -6.181191220225436961e-02 1.403850547718403265e-16 1.434207030449433884e-07 2.052963590236015767e-01 9.602572395760487767e-02 1.615281920805479443e-01 -1.244722149373025111e-01 -3.629985949937721183e-24 -2.398351818098830024e-01 -1.117455570171468765e-01 -4.837502214713926274e-02 1.871645351330724349e-01 -7.211134319245990965e-11 1.091178521151160014e-01 3.883073261858664693e-02 -1.490669431923278831e-01 1.207532643563941632e-01 1.082480339780408224e-01 6.631430464799177582e-02
1.160391213632941815e-01 -1.150413151563454083e-10 -2.094098341091360095e-39 -7.326745125991482310e-02 -1.115324371804988363e-01 -1.075489485578633581e-01 -1.573736150301097703e-01 -8.436363765712917226e-03 2.611778181241702357e-01 3.858547728521669495e-07 -1.187618046919421133e-02 -2.571819670577638051e-01 -6.169945251199728203e-12 -1.134765715457809791e-35 2.718827972521895009e-01 -3.841279247570525412e-02 3.167617953815109189e-02 -1.758483900760144658e-01 1.363661750642933495e-06 6.254726360800357836e-35 8.369356714226885923e-16 -8.457385889449458023e-32 -3.094631660561860854e-34 -1.510035070542576074e-01 -1.444335278678722245e-01 1.717467022610082399e-07 5.217096084420651570e-08 1.074030010769616711e-01 1.120593077594260745e-01 4.609116823299738014e-02 -1.104818176039422672e-01 -4.141002410280547608e-02 -2.384869007050966216e-01 -1.904142570945189893e-33 1.186206140761615805e-32 -2.519354782686331579e-10 -3.660431759086039127e-01 2.044906630631295463e-01 -1.775059752161984583e-01 -1.222236066616277888e-09 8.194999561973576735e-03 -6.022668418242133753e-02 -8.709854688379180254e-02 1.178249096632065507e-01 -3.579643306741257802e-02 6.614629660579159076e-02 -1.075292559654627027e-35 9.482239829534586845e-12 3.686567270578287869e-02 -2.403285438646802358e-02 2.564300855908055004e-13 -1.074724714552639446e-02 -7.847798517966105308e-09 2.472364089088024131e-01 -1.121804192755373464e-01 5.374663500710134129e-02 -5.324369111363524976e-02 -1.717716038879530008e-27 1.607836984743932955e-03 -1.628864931288451223e-01 4.822430452391487064e-03 -4.564577421707046584e-02 -6.241677629876255518e-01 -3.071729482539521938e-01
-1.669060095774764774e-01 3.921155669628417233e-27 -3.247002160834296270e-08 3.374090531902314447e-08 -3.860481362046351284e-01 3.231482114470994871e-01 -2.689317539387449777e-09 -2.542864909424580322e-02 9.561325931854736462e-03 -5.831544768160667393e-11 -4.261688777002721751e-01 7.224135957116410711e-02 4.570982962260859983e-01 -1.287458418848521086e-38 1.042966256982785223e-01 -1.398931820103604126e-03 1.086703829033100754e-01 -7.857055155293461951e-05 -3.373264073579886345e-11 4.851925506620889722e-08 -9.788596047262457860e-30 2.715962138596751160e-34 1.410502824966224441e-18 2.702933857433652970e-02 4.697245158769394191e-01 6.906181554329202110e-02 -1.999707717378174054e-36 2.178956506286042483e-01 3.093263279981955938e-01 -4.654832877514967354e-02 -4.140296252614353856e-01 -2.507990990078493576e-01 -2.594184536434989904e-02 7.693552253839905375e-02 -2.603092978995070750e-01 3.727493190315982474e-01 -2.059386023253978737e-01 -1.264986051159988356e-01 -6.511485965870431245e-40 -2.744502866850199766e-32 8.616066014894825653e-02 -9.707052908749314035e-02 6.074839511219455590e-02 2.248387630081843669e-01 -1.717935393128749641e-02 9.603970179325647949e-03 1.830154329144293276e-10 1.250630663193988379e-33 6.809260935361714381e-14 2.012066765809935295e-07 1.218545570353049381e-08 6.853175212782706971e-02 5.315185085800443820e-13 1.259170197220430175e-10 -2.166779985985063384e-01 -3.016503736783143414e-07 -4.750585335242660245e-01 1.723103714896837547e-30 -5.004984051999677649e-03 -2.924973134123858842e-01 5.871106769957348078e-33 1.224797871207538094e-02 -1.369215359737451822e-02 4.860498754554619105e-01
-9.665969109969959875e-39 -1.008200348518186950e-13 2.557058844210959001e-25 -1.311084568051598727e-19 -3.247283446225229761e-39 -7.913831435910432250e-15 7.381879467614808014e-07 3.095668129937711859e-24 4.581167291300373136e-07 -1.378903421379247192e-37 -1.058232970371189375e-39 1.397511716478940985e-08 -9.642361628272297613e-40 -2.498350272188088904e-25 9.642310076867482895e-20 2.578041527072790153e-38 -2.643797566013971767e-09 -6.925185153042055230e-14 -2.786383669204298909e-06 -5.444955335028687774e-07 1.151149313032739866e-06 2.604139075833896971e-19 -6.691935726796878120e-31 6.402411872622053175e-11 -1.917925979894064986e-39 -1.536915104940735264e-10 -9.583882790278817178e-23 2.024393847825505498e-36 1.552633936682060592e-22 1.554947361068859132e-16 1.061365367883083897e-06 1.154091974992506756e-37 -2.715961771932165139e-31 2.942282317134693018e-32 -1.195290692730136445e-07 1.342604189014392864e-08 -3.706855161611939377e-09 -9.794642478025124290e-30 2.912564312993452339e-12 -1.785637458252577077e-36 -7.283066002464902791e-37 -4.328882608955866051e-39 3.449907931778110043e-10 -5.190067348684653310e-31 1.452482967620687479e-09 -3.610557808794270969e-08 1.292837501757424696e-15 1.656776344105319427e-10 -4.174641020084488759e-12 2.906377618198390321e-38 -3.689973912405637468e-11 -2.241320936075338763e-25 8.049297881702550760e-39 -1.842330453829853956e-33 -4.045457053930551461e-13 -2.086414907601042728e-14 -4.894059815112572474e-07 5.298306115205261544e-29 4.246426168382401226e-38 4.841376699550391218e-10 -1.667794457532816612e-30 -2.550989672721065710e-38 3.761674377834226586e-07 1.160513488615775394e-24
2.249478386686097897e-01 -1.184429969904117004e-39 -3.585062667285358677e-21 -6.294302478653293065e-01 1.253998152398156929e-01 -2.885275200779065519e-01 -1.352637304852394312e-26 8.538408242715980062e-03 -7.284401132556513059e-02 3.044185042382231873e-36 -9.765278813235615807e-02 1.462602655086497616e-01 1.315511107766848820e-01 8.285692437812407425e-07 1.484727438807741662e-01 2.515421882398288234e-01 1.581413988451054742e-01 1.627062753876090673e-01 -8.608017686904087037e-13 -1.879284028648938162e-30 1.537686075970806159e-34 2.120120089988934657e-36 1.524454222700050451e-39 1.795473288258194189e-01 1.206537385618992181e-01 -9.285832361850350838e-03 -3.354105752008428862e-13 2.225897251478101135e-01 -5.226102801087232352e-01 -1.139260257626224654e-01 -2.327618678123875851e-02 -1.604341411342109780e-02 2.342610566538598851e-02 -1.598172345772412919e-02 8.818067864581333182e-02 5.696598019244051431e-02 2.195595541095388958e-01 2.227758222192132431e-01 -1.019719519930073343e-01 -9.844543728836856357e-30 -1.771282056296296925e-01 -1.885854198908011592e-01 -2.078581253211212940e-02 3.523897651560731203e-02 2.774434611238268400e-01 -2.335095572169939571e-01 -1.047640428366381951e-38 4.082264752684173341e-21 -1.670524236308423144e-02 -1.138539304844794764e-01 1.995797800538238742e-01 4.671791325183343585e-03 2.243331527309328762e-35 -4.710467877209093546e-01 -8.547296659361039439e-02 -3.413426281111402866e-02 -5.440868697039461660e-02 -1.035732988660891432e-08 2.051307532810415224e-01 -1.534721260595385377e-02 -1.502580813419764905e-01 1.503226522965120660e-01 1.869495442292683496e-01 1.073303489022056634e-01
1.061962050851386341e-01 -3.758862878345107303e-09 -6.213263591984726241e-07 -5.246733351897638897e-01 1.059364576042041567e-01 -3.032973636265095529e-01 -4.097213644037445708e-07 -2.652761554665014621e-02 -1.707741748114829233e-02 -3.443675372934832401e-21 -2.651133044072965378e-02 -6.576367363250821413e-03 6.933217322902143764e-02 1.934099402953240201e-37 1.291394287778643013e-01 4.164863201671070714e-02 1.563827091595599650e-03 2.671241529162709724e-02 8.589655478501600841e-35 -1.675055531616227977e-08 5.055711387977515416e-17 7.052370710590858917e-07 8.381473361322713371e-07 3.064903247077730986e-01 1.689561931954166318e-01 5.508840274516819263e-02 -2.813095477635071378e-24 1.309422702547845541e-01 -2.427572474969368066e-01 4.273693562921627997e-02 7.220808457004264380e-02 -2.359513731635445866e-01 -4.570017752237903741e-02 7.991115949367954891e-08 -1.157714604749475740e-01 1.234069282034836457e-01 1.775382816522553808e-01 1.141519495813501928e-01 -1.020793633595994399e-01 2.294895145014299502e-19 -9.472302682336797286e-02 9.096178856648032274e-02 2.793916672437843276e-03 6.925038573255862251e-02 -3.206336892251394205e-02 -3.243456966876527292e-01 6.255809502804211884e-07 -1.582338945901057123e-34 4.779832296341729458e-02 -9.467791700784285169e-02 1.087722622481406276e-01 2.024985449867016674e-01 -1.800827019127654406e-37 -5.630760738255971010e-01 -1.136398226779270076e-01 8.191017865223772232e-02 -4.556095303047529715e-02 3.476864170104763347e-09 1.233355641017998966e-01 1.591507455075354960e-01 7.544010474466912586e-02 -2.762952544002408601e-03 3.534668716725151288e-02 1.188028835655661614e-01
